UTR-2 one section northern sky survey. Averaged observational data at sections No. 5 and 6 of the southern UTR-2 antenna.

  RA2000(h)      DEC2000(deg)     T25(kK)          T20(kK)        T16.7(kK)       T14.7(kK)      T12.6(kK)        T10(kK)

    0.00	   -15.00	  26.320	   28.493	   48.966	   67.101	  152.772	  327.175	 
    0.50	   -15.00	  26.806	   28.598	   47.283	   66.166	  139.568	  289.871	 
    1.00	   -15.00	  29.224	   28.324	   46.013	   61.637	  128.466	  259.910	 
    1.50	   -15.00	  26.092	   26.725	   46.293	   57.326	  132.329	  229.543	 
    2.00	   -15.00	  27.590	   27.660	   49.922	   60.545	  130.587	  262.348	 
    2.50	   -15.00	  26.066	   26.526	   50.916	   57.775	  133.720	  253.957	 
    3.00	   -15.00	  21.793	   22.368	   47.289	   56.066	  131.099	  303.775	 
    3.50	   -15.00	  24.461	   23.040	   46.764	   57.712	  138.953	  299.732	 
    4.00	   -15.00	  22.575	   23.904	   41.585	   54.804	  124.549	  274.440	 
    4.50	   -15.00	  20.273	   20.663	   37.920	   51.293	  115.281	  215.041	 
    5.00	   -15.00	  20.404	   20.951	   38.445	   52.118	  103.242	  202.602	 
    5.50	   -15.00	  26.981	   21.983	   41.549	   55.034	  105.533	  212.160	 
    6.00	   -15.00	  28.571	   24.591	   45.374	   59.117	  116.113	  232.825	 
    6.50	   -15.00	  24.395	   27.432	   49.534	   63.784	  120.833	  251.366	 
    7.00	   -15.00	  23.841	   28.259	   52.777	   68.796	  118.876	  271.304	 
    7.50	   -15.00	  23.669	   26.319	   50.647	   64.487	  112.086	  270.376	 
    8.00	   -15.00	  21.255	   21.881	   40.790	   54.411	  104.022	  224.521	 
    8.50	   -15.00	  16.887	   17.847	   35.079	   44.910	   89.585	  184.679	 
    9.00	   -15.00	  16.421	   16.953	   31.914	   39.473	   80.450	  176.254	 
    9.50	   -15.00	  16.836	   16.837	   30.892	   37.076	   78.156	  174.577	 
   10.00	   -15.00	  17.077	   17.336	   33.283	   41.153	   81.408	  189.557	 
   10.50	   -15.00	  16.980	   19.214	   36.113	   47.894	   85.862	  219.075	 
   11.00	   -15.00	  17.212	   21.094	   35.818	   44.217	   84.968	  228.485	 
   11.50	   -15.00	  16.892	   20.140	   34.794	   42.147	   79.553	  209.778	 
   12.00	   -15.00	  15.966	   18.953	   35.756	   43.427	   80.345	  193.008	 
   12.50	   -15.00	  16.483	   20.533	   38.310	   45.563	   82.549	  192.780	 
   13.00	   -15.00	  15.858	   21.099	   39.403	   46.658	   87.589	  186.824	 
   13.50	   -15.00	  15.547	   21.142	   40.116	   48.097	   97.657	  186.233	 
   14.00	   -15.00	  16.531	   22.707	   42.886	   52.247	  109.743	  237.544	 
   14.50	   -15.00	  18.188	   23.969	   47.840	   60.277	  124.584	  252.229	 
   15.00	   -15.00	  19.385	   27.115	   54.844	   68.754	  132.827	  262.249	 
   15.50	   -15.00	  20.361	   32.242	   58.458	   69.291	  126.862	  261.581	 
   16.00	   -15.00	  21.440	   33.905	   52.987	   66.520	  121.809	  238.587	 
   16.50	   -15.00	  23.801	   33.324	   58.880	   76.749	  142.735	  257.979	 
   17.00	   -15.00	  30.382	   38.228	   75.056	   97.396	  188.823	  369.912	 
   17.50	   -15.00	  33.528	   53.316	  111.994	  137.493	  273.142	  630.643	 
   18.00	   -15.00	  37.846	   70.969	  138.663	  181.950	  395.974	  855.897	 
   18.50	   -15.00	  41.665	   86.641	  155.048	  260.933	  510.424	  965.191	 
   19.00	   -15.00	  44.945	   94.401	  184.885	  276.870	  571.247	 1072.756	 
   19.50	   -15.00	  37.631	   94.585	  194.554	  292.703	  637.486	 1192.396	 
   20.00	   -15.00	  39.902	  105.495	  190.970	  260.235	  643.322	 1196.286	 
   20.50	   -15.00	  35.433	   61.662	  152.945	  213.293	  499.052	 1066.828	 
   21.00	   -15.00	  35.460	   41.846	   95.195	  144.516	  446.355	  986.908	 
   21.50	   -15.00	  29.385	   37.488	   81.462	  138.501	  414.653	  770.708	 
   22.00	   -15.00	  30.455	   34.194	   83.675	  122.849	  367.755	  639.828	 
   22.50	   -15.00	  29.730	   32.178	   78.768	  123.797	  317.691	  470.807	 
   23.00	   -15.00	  27.246	   26.757	   59.744	   97.376	  243.180	  494.210	 
   23.50	   -15.00	  27.456	   26.856	   50.028	   75.640	  208.597	  391.962	 
    0.00	   -13.00	  22.671	   26.761	   47.761	   66.641	  155.029	  309.246	 
    0.50	   -13.00	  21.638	   26.393	   47.270	   65.689	  140.806	  270.133	 
    1.00	   -13.00	  25.161	   27.736	   44.894	   60.778	  127.099	  242.611	 
    1.50	   -13.00	  24.617	   26.158	   43.431	   58.323	  132.808	  235.354	 
    2.00	   -13.00	  27.282	   28.430	   47.965	   58.832	  130.439	  264.874	 
    2.50	   -13.00	  24.378	   26.674	   48.796	   57.450	  131.764	  263.048	 
    3.00	   -13.00	  21.215	   22.183	   44.923	   55.140	  133.937	  299.811	 
    3.50	   -13.00	  21.605	   23.282	   47.509	   59.413	  136.062	  288.120	 
    4.00	   -13.00	  19.877	   23.518	   44.507	   56.009	  124.779	  266.821	 
    4.50	   -13.00	  18.772	   21.813	   38.719	   52.953	  113.623	  210.929	 
    5.00	   -13.00	  20.978	   21.238	   39.592	   53.588	  104.764	  197.527	 
    5.50	   -13.00	  22.959	   22.357	   43.148	   56.136	  105.414	  210.526	 
    6.00	   -13.00	  26.235	   25.427	   46.335	   60.488	  113.384	  231.418	 
    6.50	   -13.00	  23.150	   28.021	   50.326	   65.989	  121.736	  248.413	 
    7.00	   -13.00	  22.014	   29.381	   55.504	   70.551	  118.842	  269.147	 
    7.50	   -13.00	  21.122	   27.578	   50.853	   64.022	  111.223	  269.920	 
    8.00	   -13.00	  18.925	   22.193	   41.702	   53.720	  103.165	  231.145	 
    8.50	   -13.00	  16.265	   18.205	   34.970	   44.589	   90.712	  187.354	 
    9.00	   -13.00	  15.508	   16.904	   32.115	   39.360	   80.717	  179.085	 
    9.50	   -13.00	  16.253	   17.460	   31.575	   37.468	   77.857	  174.664	 
   10.00	   -13.00	  16.695	   18.077	   33.459	   41.354	   80.099	  185.392	 
   10.50	   -13.00	  16.918	   19.320	   36.708	   47.592	   84.999	  216.276	 
   11.00	   -13.00	  17.282	   21.974	   39.083	   46.802	   83.426	  225.083	 
   11.50	   -13.00	  16.634	   20.591	   36.843	   44.541	   82.936	  230.336	 
   12.00	   -13.00	  17.004	   20.276	   37.184	   45.154	   82.098	  195.288	 
   12.50	   -13.00	  17.336	   21.254	   39.531	   47.633	   84.476	  194.809	 
   13.00	   -13.00	  17.150	   21.491	   40.644	   48.405	   90.031	  195.892	 
   13.50	   -13.00	  16.017	   21.870	   41.609	   49.769	   98.917	  206.612	 
   14.00	   -13.00	  17.054	   22.873	   44.231	   53.835	  113.434	  235.668	 
   14.50	   -13.00	  18.731	   25.082	   48.883	   61.838	  125.178	  261.778	 
   15.00	   -13.00	  19.471	   27.965	   58.521	   71.727	  133.436	  288.518	 
   15.50	   -13.00	  20.522	   32.411	   63.078	   72.306	  126.933	  273.389	 
   16.00	   -13.00	  20.839	   35.033	   58.660	   69.505	  120.788	  232.958	 
   16.50	   -13.00	  23.428	   33.495	   58.396	   74.804	  138.585	  239.468	 
   17.00	   -13.00	  28.732	   38.380	   76.434	   98.766	  183.127	  409.939	 
   17.50	   -13.00	  31.165	   53.732	  116.669	  141.122	  274.027	  621.799	 
   18.00	   -13.00	  36.407	   70.873	  145.902	  186.728	  393.204	  872.276	 
   18.50	   -13.00	  40.868	   87.393	  163.680	  267.603	  500.693	  982.593	 
   19.00	   -13.00	  45.486	   95.946	  184.960	  287.980	  562.822	 1091.812	 
   19.50	   -13.00	  37.328	   91.948	  197.872	  275.854	  614.372	 1186.014	 
   20.00	   -13.00	  39.975	   98.434	  197.054	  262.843	  615.722	 1184.901	 
   20.50	   -13.00	  33.518	   65.256	  159.657	  240.935	  556.789	 1166.641	 
   21.00	   -13.00	  34.395	   44.556	   97.400	  156.001	  486.213	  962.496	 
   21.50	   -13.00	  28.420	   38.883	   78.685	  148.054	  432.942	  961.538	 
   22.00	   -13.00	  30.334	   35.471	   81.317	  132.901	  360.366	  812.094	 
   22.50	   -13.00	  27.959	   31.372	   77.071	  123.164	  309.788	  538.939	 
   23.00	   -13.00	  24.890	   27.402	   56.994	   99.722	  241.902	  514.223	 
   23.50	   -13.00	  25.603	   25.992	   49.069	   72.682	  196.384	  373.184	 
    0.00	   -11.00	  22.945	   25.338	   46.550	   63.560	  144.132	  293.112	 
    0.50	   -11.00	  21.344	   25.506	   44.837	   63.365	  132.708	  254.749	 
    1.00	   -11.00	  24.096	   25.678	   44.357	   58.516	  125.133	  239.765	 
    1.50	   -11.00	  22.818	   25.114	   44.308	   57.006	  126.036	  238.614	 
    2.00	   -11.00	  23.747	   27.443	   47.629	   57.252	  125.280	  252.335	 
    2.50	   -11.00	  22.349	   26.606	   48.910	   55.628	  128.322	  247.828	 
    3.00	   -11.00	  21.145	   22.805	   45.356	   54.981	  123.116	  288.035	 
    3.50	   -11.00	  20.698	   23.518	   48.634	   63.875	  130.475	  284.580	 
    4.00	   -11.00	  18.911	   24.168	   47.074	   58.798	  124.039	  258.900	 
    4.50	   -11.00	  21.781	   22.380	   40.905	   57.147	  114.873	  206.383	 
    5.00	   -11.00	  22.154	   21.901	   41.847	   56.857	  104.052	  190.084	 
    5.50	   -11.00	  22.043	   23.616	   44.148	   58.907	  105.084	  203.068	 
    6.00	   -11.00	  24.676	   27.074	   47.911	   64.466	  118.913	  228.386	 
    6.50	   -11.00	  22.240	   29.769	   54.381	   71.464	  119.123	  247.674	 
    7.00	   -11.00	  21.891	   30.809	   59.532	   73.167	  118.869	  274.949	 
    7.50	   -11.00	  20.926	   28.678	   52.451	   64.332	  114.062	  261.865	 
    8.00	   -11.00	  16.825	   22.927	   42.454	   53.066	  105.749	  227.888	 
    8.50	   -11.00	  14.645	   18.352	   36.095	   45.015	   93.290	  192.459	 
    9.00	   -11.00	  14.312	   17.433	   32.687	   40.685	   83.503	  177.666	 
    9.50	   -11.00	  15.322	   17.623	   32.267	   39.090	   79.234	  172.629	 
   10.00	   -11.00	  15.342	   18.217	   33.885	   41.152	   80.625	  180.776	 
   10.50	   -11.00	  16.355	   19.733	   37.228	   48.788	   86.363	  211.231	 
   11.00	   -11.00	  16.525	   22.597	   42.118	   50.979	   85.426	  220.437	 
   11.50	   -11.00	  16.433	   23.354	   41.078	   48.143	   86.839	  224.120	 
   12.00	   -11.00	  17.714	   21.815	   40.159	   48.358	   84.383	  214.579	 
   12.50	   -11.00	  17.821	   22.664	   42.817	   50.027	   87.559	  218.460	 
   13.00	   -11.00	  17.073	   23.282	   43.401	   51.343	   94.144	  222.764	 
   13.50	   -11.00	  16.318	   23.401	   43.976	   52.677	  104.398	  225.261	 
   14.00	   -11.00	  17.597	   24.491	   47.368	   56.522	  120.110	  240.783	 
   14.50	   -11.00	  19.275	   26.215	   52.336	   64.645	  130.590	  271.499	 
   15.00	   -11.00	  19.552	   29.353	   62.311	   75.528	  137.900	  298.666	 
   15.50	   -11.00	  20.179	   32.724	   68.927	   77.428	  126.795	  303.433	 
   16.00	   -11.00	  20.375	   35.161	   64.053	   72.613	  122.823	  263.904	 
   16.50	   -11.00	  24.055	   34.768	   60.975	   77.659	  140.477	  295.703	 
   17.00	   -11.00	  24.580	   39.602	   79.199	  100.139	  189.491	  417.357	 
   17.50	   -11.00	  28.388	   56.204	  119.819	  146.146	  273.916	  624.865	 
   18.00	   -11.00	  35.988	   73.970	  157.816	  208.762	  406.501	  866.414	 
   18.50	   -11.00	  44.592	   90.445	  178.494	  265.197	  491.028	 1008.433	 
   19.00	   -11.00	  48.688	   97.782	  191.269	  294.030	  557.106	 1101.733	 
   19.50	   -11.00	  38.850	   91.372	  208.681	  327.108	  618.699	 1174.792	 
   20.00	   -11.00	  39.098	   93.351	  231.918	  333.732	  648.359	 1159.753	 
   20.50	   -11.00	  34.449	   65.981	  173.281	  279.379	  551.933	 1155.366	 
   21.00	   -11.00	  36.920	   47.954	   92.495	  169.664	  436.309	 1001.052	 
   21.50	   -11.00	  32.297	   41.859	   82.121	  146.860	  425.859	  933.611	 
   22.00	   -11.00	  26.784	   36.509	   82.993	  125.455	  332.952	  721.335	 
   22.50	   -11.00	  27.546	   32.409	   70.233	  110.120	  280.862	  562.910	 
   23.00	   -11.00	  24.909	   27.508	   55.985	   89.625	  234.187	  491.630	 
   23.50	   -11.00	  24.040	   25.163	   49.512	   71.529	  188.431	  371.349	 
    0.00	    -9.00	  20.386	   24.598	   45.807	   61.805	  135.641	  281.064	 
    0.50	    -9.00	  18.820	   24.662	   45.454	   62.487	  133.282	  247.260	 
    1.00	    -9.00	  21.177	   25.375	   45.443	   59.577	  123.281	  240.992	 
    1.50	    -9.00	  20.155	   25.061	   44.895	   57.759	  124.582	  243.136	 
    2.00	    -9.00	  21.725	   26.335	   47.930	   58.184	  123.231	  249.019	 
    2.50	    -9.00	  18.774	   26.251	   52.611	   57.622	  124.012	  257.491	 
    3.00	    -9.00	  18.009	   24.294	   48.918	   59.007	  118.108	  281.673	 
    3.50	    -9.00	  18.326	   24.767	   48.956	   65.158	  122.864	  278.633	 
    4.00	    -9.00	  18.124	   24.277	   47.322	   60.831	  123.652	  245.272	 
    4.50	    -9.00	  21.613	   23.474	   42.850	   58.152	  111.078	  198.983	 
    5.00	    -9.00	  21.252	   23.021	   43.129	   58.865	  101.651	  184.435	 
    5.50	    -9.00	  21.437	   24.344	   45.436	   59.846	  104.461	  198.011	 
    6.00	    -9.00	  23.653	   28.488	   50.971	   67.357	  117.879	  222.691	 
    6.50	    -9.00	  23.591	   30.891	   59.412	   73.969	  122.498	  249.835	 
    7.00	    -9.00	  22.558	   31.588	   63.440	   75.700	  121.467	  276.792	 
    7.50	    -9.00	  21.248	   28.989	   54.342	   66.119	  114.837	  258.003	 
    8.00	    -9.00	  17.549	   23.328	   43.697	   54.275	  103.113	  229.229	 
    8.50	    -9.00	  14.822	   18.539	   37.099	   45.717	   93.612	  190.412	 
    9.00	    -9.00	  14.575	   17.300	   32.938	   40.761	   83.981	  178.051	 
    9.50	    -9.00	  15.282	   17.569	   32.314	   39.006	   76.769	  168.986	 
   10.00	    -9.00	  15.667	   18.141	   32.991	   41.159	   79.877	  174.133	 
   10.50	    -9.00	  16.872	   19.204	   36.608	   49.002	   83.813	  202.042	 
   11.00	    -9.00	  16.848	   22.204	   41.949	   50.774	   84.756	  212.877	 
   11.50	    -9.00	  16.663	   23.319	   42.240	   49.964	   85.022	  215.791	 
   12.00	    -9.00	  17.996	   23.072	   42.307	   50.593	   86.731	  215.341	 
   12.50	    -9.00	  18.082	   24.184	   45.529	   52.918	   90.263	  219.745	 
   13.00	    -9.00	  18.006	   24.863	   46.805	   54.272	   96.073	  226.314	 
   13.50	    -9.00	  17.332	   24.939	   47.567	   54.743	  105.414	  230.107	 
   14.00	    -9.00	  18.243	   25.179	   50.009	   57.646	  116.597	  240.566	 
   14.50	    -9.00	  19.438	   27.441	   54.581	   65.031	  127.250	  269.825	 
   15.00	    -9.00	  20.025	   29.467	   63.363	   75.056	  132.366	  292.281	 
   15.50	    -9.00	  19.957	   32.278	   71.617	   78.079	  125.186	  293.026	 
   16.00	    -9.00	  22.032	   35.435	   67.946	   74.479	  123.417	  284.042	 
   16.50	    -9.00	  23.749	   35.563	   64.384	   80.307	  139.517	  324.249	 
   17.00	    -9.00	  24.208	   41.484	   82.584	  104.705	  192.366	  433.390	 
   17.50	    -9.00	  28.426	   57.314	  124.712	  154.392	  258.291	  609.359	 
   18.00	    -9.00	  36.509	   75.363	  164.026	  209.306	  379.163	  856.963	 
   18.50	    -9.00	  46.374	   90.629	  183.144	  256.096	  457.523	 1013.999	 
   19.00	    -9.00	  48.892	  100.169	  196.661	  291.236	  515.642	 1166.606	 
   19.50	    -9.00	  43.526	   90.141	  211.075	  328.399	  571.597	 1164.334	 
   20.00	    -9.00	  37.514	   85.620	  224.965	  345.322	  604.987	 1152.949	 
   20.50	    -9.00	  31.952	   65.162	  169.373	  274.664	  576.167	 1144.683	 
   21.00	    -9.00	  35.095	   46.755	   97.060	  177.656	  469.033	 1134.101	 
   21.50	    -9.00	  29.961	   43.669	   86.001	  147.810	  381.106	  920.845	 
   22.00	    -9.00	  23.344	   37.621	   82.312	  115.655	  295.311	  661.853	 
   22.50	    -9.00	  24.469	   33.221	   66.453	  102.103	  242.732	  487.427	 
   23.00	    -9.00	  23.643	   28.477	   53.372	   82.247	  213.101	  464.058	 
   23.50	    -9.00	  21.628	   25.591	   47.376	   63.535	  166.264	  351.525	 
    0.00	    -7.00	  18.523	   24.274	   46.726	   60.182	  134.859	  270.674	 
    0.50	    -7.00	  17.470	   24.524	   45.236	   60.546	  128.246	  235.817	 
    1.00	    -7.00	  20.010	   25.915	   46.207	   59.197	  125.369	  235.196	 
    1.50	    -7.00	  18.769	   25.486	   46.228	   57.373	  122.063	  249.252	 
    2.00	    -7.00	  19.708	   25.989	   48.576	   59.238	  121.416	  256.737	 
    2.50	    -7.00	  17.787	   25.514	   57.461	   59.344	  120.607	  267.158	 
    3.00	    -7.00	  16.440	   24.736	   54.186	   62.961	  112.790	  275.499	 
    3.50	    -7.00	  17.115	   25.023	   49.355	   63.292	  116.456	  263.561	 
    4.00	    -7.00	  16.408	   23.922	   45.901	   60.551	  115.799	  225.117	 
    4.50	    -7.00	  17.728	   23.610	   42.604	   59.343	  107.305	  196.951	 
    5.00	    -7.00	  17.198	   23.723	   43.130	   59.279	   99.911	  179.116	 
    5.50	    -7.00	  19.325	   25.041	   47.089	   60.075	  104.995	  194.556	 
    6.00	    -7.00	  21.795	   28.696	   52.133	   68.375	  121.098	  219.435	 
    6.50	    -7.00	  21.674	   31.577	   61.291	   74.926	  123.067	  250.803	 
    7.00	    -7.00	  20.390	   31.341	   64.166	   76.759	  120.334	  273.204	 
    7.50	    -7.00	  18.194	   28.512	   55.018	   67.728	  114.307	  260.807	 
    8.00	    -7.00	  16.170	   23.211	   43.898	   54.849	  101.808	  228.838	 
    8.50	    -7.00	  13.437	   18.158	   36.844	   45.611	   92.925	  193.865	 
    9.00	    -7.00	  12.641	   16.872	   32.629	   40.485	   81.880	  173.644	 
    9.50	    -7.00	  13.090	   17.280	   31.611	   39.009	   75.215	  162.547	 
   10.00	    -7.00	  13.675	   17.814	   32.376	   41.037	   76.639	  165.625	 
   10.50	    -7.00	  14.069	   18.739	   35.353	   47.054	   82.055	  183.260	 
   11.00	    -7.00	  15.045	   20.934	   40.244	   48.835	   84.490	  202.574	 
   11.50	    -7.00	  15.850	   22.028	   42.081	   50.124	   85.691	  208.904	 
   12.00	    -7.00	  17.328	   22.892	   43.866	   52.610	   87.985	  211.804	 
   12.50	    -7.00	  18.038	   25.242	   47.970	   55.130	   91.547	  214.899	 
   13.00	    -7.00	  17.774	   26.285	   48.793	   55.993	   95.432	  221.107	 
   13.50	    -7.00	  17.395	   25.388	   48.621	   56.276	  103.761	  228.020	 
   14.00	    -7.00	  17.783	   25.040	   51.041	   58.677	  114.116	  243.340	 
   14.50	    -7.00	  18.121	   27.733	   54.889	   65.533	  122.278	  264.148	 
   15.00	    -7.00	  18.276	   29.725	   62.473	   74.458	  127.867	  280.301	 
   15.50	    -7.00	  18.049	   31.655	   71.351	   78.244	  121.892	  279.188	 
   16.00	    -7.00	  19.791	   34.711	   71.522	   77.357	  122.435	  288.229	 
   16.50	    -7.00	  20.680	   35.818	   67.611	   82.373	  142.992	  323.536	 
   17.00	    -7.00	  22.815	   41.776	   83.632	  105.855	  189.809	  415.698	 
   17.50	    -7.00	  27.929	   57.658	  127.433	  158.069	  244.850	  575.265	 
   18.00	    -7.00	  37.383	   76.687	  167.552	  206.699	  344.089	  828.251	 
   18.50	    -7.00	  48.427	   93.561	  186.560	  251.667	  428.848	  975.662	 
   19.00	    -7.00	  49.895	   99.628	  194.313	  280.889	  464.601	 1127.178	 
   19.50	    -7.00	  40.554	   84.967	  208.038	  305.223	  532.130	 1162.249	 
   20.00	    -7.00	  33.333	   78.487	  210.765	  310.776	  573.589	 1142.974	 
   20.50	    -7.00	  29.279	   60.749	  162.340	  247.151	  564.667	 1123.330	 
   21.00	    -7.00	  35.626	   49.304	   98.655	  163.188	  439.134	 1080.645	 
   21.50	    -7.00	  30.412	   41.880	   86.792	  138.664	  335.975	  925.407	 
   22.00	    -7.00	  22.987	   38.253	   80.799	  109.148	  263.996	  645.023	 
   22.50	    -7.00	  23.477	   33.041	   64.189	   92.529	  224.906	  427.524	 
   23.00	    -7.00	  20.106	   29.002	   50.888	   75.580	  197.117	  403.784	 
   23.50	    -7.00	  19.796	   26.417	   46.951	   62.754	  162.670	  348.760	 
    0.00	    -5.00	  18.886	   25.430	   47.800	   59.050	  133.658	  265.696	 
    0.50	    -5.00	  17.776	   25.586	   46.896	   58.382	  126.799	  238.805	 
    1.00	    -5.00	  19.509	   27.402	   47.027	   58.446	  123.364	  233.381	 
    1.50	    -5.00	  18.571	   26.974	   48.286	   58.581	  123.392	  251.175	 
    2.00	    -5.00	  19.898	   27.197	   51.402	   61.723	  120.470	  277.269	 
    2.50	    -5.00	  18.241	   26.376	   60.329	   65.400	  117.747	  281.177	 
    3.00	    -5.00	  17.008	   25.054	   56.594	   64.512	  111.424	  268.543	 
    3.50	    -5.00	  16.138	   24.915	   49.656	   64.725	  111.340	  245.063	 
    4.00	    -5.00	  16.073	   24.148	   46.112	   59.961	  111.669	  210.672	 
    4.50	    -5.00	  16.827	   24.171	   43.944	   58.401	  104.827	  188.855	 
    5.00	    -5.00	  16.931	   24.509	   45.412	   59.030	   98.329	  175.193	 
    5.50	    -5.00	  18.240	   25.903	   48.661	   60.946	  102.578	  198.076	 
    6.00	    -5.00	  19.608	   29.548	   54.477	   70.611	  118.549	  217.712	 
    6.50	    -5.00	  20.795	   32.193	   64.988	   78.452	  125.087	  243.009	 
    7.00	    -5.00	  20.169	   32.022	   65.794	   78.999	  119.703	  260.988	 
    7.50	    -5.00	  17.239	   27.732	   55.555	   68.261	  110.996	  251.470	 
    8.00	    -5.00	  15.405	   22.624	   44.629	   55.442	   99.845	  225.010	 
    8.50	    -5.00	  12.668	   18.298	   36.403	   45.467	   90.640	  185.350	 
    9.00	    -5.00	  11.627	   16.463	   32.473	   39.910	   78.597	  167.136	 
    9.50	    -5.00	  12.037	   17.001	   31.462	   38.486	   72.215	  154.996	 
   10.00	    -5.00	  12.783	   17.208	   32.103	   40.776	   72.370	  155.099	 
   10.50	    -5.00	  13.569	   17.870	   35.042	   45.016	   78.393	  168.161	 
   11.00	    -5.00	  14.079	   19.693	   39.412	   47.276	   82.981	  190.424	 
   11.50	    -5.00	  14.885	   20.851	   41.704	   50.306	   84.236	  199.340	 
   12.00	    -5.00	  16.416	   22.929	   44.940	   53.701	   86.887	  201.683	 
   12.50	    -5.00	  18.318	   25.620	   49.020	   56.952	   90.220	  209.821	 
   13.00	    -5.00	  18.004	   26.180	   49.829	   57.893	   93.037	  217.385	 
   13.50	    -5.00	  17.058	   25.468	   49.465	   57.383	   99.594	  223.743	 
   14.00	    -5.00	  17.588	   25.672	   51.211	   59.877	  110.406	  235.174	 
   14.50	    -5.00	  18.513	   27.915	   55.610	   65.877	  117.467	  255.187	 
   15.00	    -5.00	  18.502	   29.588	   62.506	   74.931	  120.440	  266.242	 
   15.50	    -5.00	  18.967	   30.911	   70.915	   78.091	  118.826	  270.100	 
   16.00	    -5.00	  19.147	   34.098	   73.880	   78.049	  122.005	  281.715	 
   16.50	    -5.00	  19.729	   36.481	   73.184	   86.626	  145.231	  319.904	 
   17.00	    -5.00	  22.364	   41.646	   88.058	  107.591	  189.437	  406.959	 
   17.50	    -5.00	  27.967	   57.486	  129.545	  156.524	  244.376	  557.995	 
   18.00	    -5.00	  36.564	   77.918	  167.625	  208.455	  335.620	  801.554	 
   18.50	    -5.00	  47.888	   95.782	  187.462	  245.264	  391.623	  940.203	 
   19.00	    -5.00	  50.388	   96.123	  190.710	  265.930	  418.684	 1065.806	 
   19.50	    -5.00	  40.100	   83.475	  198.588	  288.164	  480.391	 1114.352	 
   20.00	    -5.00	  33.879	   70.741	  197.867	  284.517	  550.759	 1110.270	 
   20.50	    -5.00	  31.768	   58.267	  150.291	  226.012	  523.525	 1106.987	 
   21.00	    -5.00	  37.649	   50.709	  103.047	  153.918	  389.415	  957.626	 
   21.50	    -5.00	  28.311	   43.345	   88.144	  131.991	  298.872	  916.591	 
   22.00	    -5.00	  23.110	   37.636	   82.022	  103.773	  247.210	  592.028	 
   22.50	    -5.00	  22.649	   32.345	   64.307	   87.566	  203.032	  413.021	 
   23.00	    -5.00	  20.867	   29.103	   52.752	   76.235	  183.702	  381.097	 
   23.50	    -5.00	  20.214	   27.753	   48.455	   65.493	  153.250	  351.868	 
    0.00	    -3.00	  18.266	   26.987	   49.593	   60.639	  131.242	  271.076	 
    0.50	    -3.00	  17.482	   27.435	   48.406	   57.660	  123.618	  241.035	 
    1.00	    -3.00	  18.066	   29.167	   48.358	   58.792	  124.621	  235.258	 
    1.50	    -3.00	  18.025	   28.870	   49.579	   58.972	  121.950	  251.615	 
    2.00	    -3.00	  19.000	   29.092	   54.100	   67.382	  121.476	  274.954	 
    2.50	    -3.00	  17.783	   27.995	   62.012	   70.703	  116.746	  277.809	 
    3.00	    -3.00	  17.330	   25.688	   56.144	   67.753	  113.493	  258.481	 
    3.50	    -3.00	  16.204	   24.984	   49.803	   64.706	  115.469	  228.754	 
    4.00	    -3.00	  16.350	   25.076	   46.843	   58.086	  113.876	  203.786	 
    4.50	    -3.00	  17.019	   25.131	   46.824	   58.102	  106.447	  180.051	 
    5.00	    -3.00	  17.499	   25.681	   48.548	   60.585	  100.132	  175.152	 
    5.50	    -3.00	  18.814	   27.989	   50.729	   63.468	  106.448	  193.919	 
    6.00	    -3.00	  18.916	   30.796	   59.055	   72.118	  117.404	  213.917	 
    6.50	    -3.00	  20.839	   34.139	   67.799	   81.453	  125.136	  232.495	 
    7.00	    -3.00	  20.428	   32.570	   66.208	   80.258	  121.250	  247.335	 
    7.50	    -3.00	  17.560	   27.745	   56.600	   69.047	  110.308	  240.492	 
    8.00	    -3.00	  15.253	   23.437	   46.323	   55.304	   96.924	  215.107	 
    8.50	    -3.00	  12.747	   19.025	   37.057	   45.463	   87.556	  181.683	 
    9.00	    -3.00	  11.797	   16.331	   32.857	   40.293	   74.597	  162.319	 
    9.50	    -3.00	  12.079	   16.575	   31.716	   38.646	   68.934	  149.087	 
   10.00	    -3.00	  12.381	   17.175	   32.487	   40.242	   70.735	  148.650	 
   10.50	    -3.00	  12.932	   17.966	   35.574	   44.418	   75.544	  160.807	 
   11.00	    -3.00	  13.595	   19.125	   39.322	   47.695	   79.982	  176.961	 
   11.50	    -3.00	  14.677	   20.677	   42.208	   51.553	   82.674	  189.527	 
   12.00	    -3.00	  16.168	   23.484	   47.758	   55.543	   85.708	  193.604	 
   12.50	    -3.00	  18.043	   26.492	   51.215	   58.989	   89.179	  199.109	 
   13.00	    -3.00	  17.897	   26.946	   51.905	   60.322	   92.102	  208.460	 
   13.50	    -3.00	  17.082	   25.962	   50.854	   59.750	   98.030	  216.041	 
   14.00	    -3.00	  17.292	   26.624	   52.693	   62.288	  106.829	  227.925	 
   14.50	    -3.00	  17.990	   28.235	   57.309	   67.590	  114.450	  249.341	 
   15.00	    -3.00	  18.716	   30.247	   63.668	   75.989	  120.175	  256.064	 
   15.50	    -3.00	  18.361	   31.854	   72.976	   79.973	  118.267	  262.800	 
   16.00	    -3.00	  18.787	   35.082	   81.856	   82.907	  119.202	  277.998	 
   16.50	    -3.00	  20.067	   38.564	   80.403	   91.096	  152.266	  324.205	 
   17.00	    -3.00	  23.060	   44.817	   94.596	  115.226	  198.606	  400.115	 
   17.50	    -3.00	  27.116	   60.128	  132.421	  166.944	  260.314	  532.473	 
   18.00	    -3.00	  36.901	   80.446	  169.879	  216.377	  344.093	  784.298	 
   18.50	    -3.00	  50.290	   96.446	  187.322	  245.653	  358.123	  911.828	 
   19.00	    -3.00	  53.136	   96.886	  191.450	  266.676	  376.748	 1021.225	 
   19.50	    -3.00	  42.156	   85.088	  194.887	  280.082	  447.598	 1073.360	 
   20.00	    -3.00	  34.956	   71.549	  179.583	  258.131	  532.027	 1074.173	 
   20.50	    -3.00	  30.968	   58.340	  136.670	  190.796	  496.693	 1069.985	 
   21.00	    -3.00	  33.381	   53.249	  100.066	  152.923	  359.228	  938.513	 
   21.50	    -3.00	  26.054	   43.606	   83.608	  123.341	  284.603	  770.035	 
   22.00	    -3.00	  22.767	   36.424	   78.761	   98.664	  233.559	  540.756	 
   22.50	    -3.00	  20.929	   32.351	   64.567	   84.711	  191.867	  394.689	 
   23.00	    -3.00	  20.884	   29.875	   54.299	   76.893	  170.689	  376.664	 
   23.50	    -3.00	  19.905	   28.789	   51.590	   69.385	  146.878	  358.049	 
    0.00	    -1.00	  18.833	   29.206	   51.141	   61.344	  126.229	  280.252	 
    0.50	    -1.00	  17.405	   29.337	   49.482	   58.220	  120.255	  239.400	 
    1.00	    -1.00	  16.245	   30.381	   49.355	   60.034	  120.506	  236.076	 
    1.50	    -1.00	  17.425	   29.159	   50.036	   63.139	  121.658	  251.799	 
    2.00	    -1.00	  18.803	   29.764	   55.304	   71.338	  118.362	  265.123	 
    2.50	    -1.00	  18.049	   29.374	   62.026	   73.346	  117.654	  271.034	 
    3.00	    -1.00	  16.917	   27.207	   56.188	   70.888	  116.862	  252.481	 
    3.50	    -1.00	  15.954	   26.019	   49.562	   66.242	  120.012	  219.873	 
    4.00	    -1.00	  16.209	   25.568	   47.965	   58.647	  115.656	  199.966	 
    4.50	    -1.00	  16.675	   25.976	   49.324	   59.770	  109.609	  182.745	 
    5.00	    -1.00	  17.408	   27.157	   51.107	   62.463	  103.452	  178.181	 
    5.50	    -1.00	  18.759	   30.034	   54.623	   66.978	  107.731	  197.780	 
    6.00	    -1.00	  18.953	   32.828	   62.342	   76.148	  115.161	  210.684	 
    6.50	    -1.00	  21.283	   35.717	   70.910	   84.484	  129.295	  223.871	 
    7.00	    -1.00	  20.279	   33.188	   66.931	   80.350	  120.132	  233.791	 
    7.50	    -1.00	  17.026	   28.011	   57.511	   68.140	  107.343	  224.666	 
    8.00	    -1.00	  14.866	   23.945	   46.826	   54.015	   93.771	  207.181	 
    8.50	    -1.00	  12.387	   19.567	   37.804	   44.942	   82.966	  177.628	 
    9.00	    -1.00	  11.443	   16.372	   33.174	   40.312	   72.402	  160.520	 
    9.50	    -1.00	  11.851	   16.428	   32.164	   39.120	   66.457	  144.161	 
   10.00	    -1.00	  11.838	   17.321	   33.042	   39.735	   67.874	  143.299	 
   10.50	    -1.00	  11.893	   18.395	   36.151	   43.602	   73.247	  152.182	 
   11.00	    -1.00	  12.920	   19.315	   39.770	   48.052	   77.685	  164.908	 
   11.50	    -1.00	  14.411	   20.673	   42.588	   51.905	   80.731	  174.273	 
   12.00	    -1.00	  15.842	   23.678	   48.398	   56.220	   83.918	  179.577	 
   12.50	    -1.00	  18.175	   26.893	   53.113	   60.841	   87.508	  187.241	 
   13.00	    -1.00	  18.011	   27.435	   54.411	   62.294	   90.423	  200.888	 
   13.50	    -1.00	  16.612	   26.552	   53.310	   61.331	   95.604	  206.463	 
   14.00	    -1.00	  16.911	   27.241	   53.789	   63.178	  102.246	  219.973	 
   14.50	    -1.00	  18.025	   28.849	   59.659	   68.852	  111.799	  236.330	 
   15.00	    -1.00	  19.013	   31.302	   66.399	   77.369	  118.079	  243.331	 
   15.50	    -1.00	  18.843	   33.404	   75.460	   84.510	  118.405	  254.305	 
   16.00	    -1.00	  20.059	   37.097	   84.507	   90.147	  127.584	  270.040	 
   16.50	    -1.00	  21.702	   40.257	   84.650	   97.670	  155.490	  313.022	 
   17.00	    -1.00	  24.360	   48.337	  100.442	  123.695	  195.250	  386.524	 
   17.50	    -1.00	  27.874	   63.068	  135.701	  170.442	  263.812	  534.716	 
   18.00	    -1.00	  36.157	   81.149	  169.255	  215.636	  324.749	  770.101	 
   18.50	    -1.00	  52.693	   96.388	  187.867	  242.914	  331.030	  893.451	 
   19.00	    -1.00	  54.617	   96.758	  193.885	  261.057	  347.988	  986.411	 
   19.50	    -1.00	  44.714	   87.077	  188.717	  268.924	  418.589	 1032.957	 
   20.00	    -1.00	  36.097	   71.136	  165.595	  238.337	  500.973	 1041.546	 
   20.50	    -1.00	  31.528	   57.531	  128.353	  181.866	  462.950	 1038.712	 
   21.00	    -1.00	  31.438	   55.006	   96.046	  140.503	  349.288	  928.814	 
   21.50	    -1.00	  27.782	   45.834	   84.863	  114.561	  258.066	  725.956	 
   22.00	    -1.00	  21.923	   36.538	   75.725	   92.207	  214.919	  455.704	 
   22.50	    -1.00	  20.578	   31.945	   63.909	   80.767	  180.585	  387.395	 
   23.00	    -1.00	  21.476	   30.395	   55.464	   77.370	  160.476	  377.907	 
   23.50	    -1.00	  20.507	   29.988	   53.295	   70.121	  138.899	  349.807	 
    0.00	     1.00	  18.691	   29.908	   53.423	   63.685	  121.189	  292.873	 
    0.50	     1.00	  16.450	   30.102	   51.161	   60.527	  117.730	  246.049	 
    1.00	     1.00	  16.059	   30.514	   50.847	   61.076	  116.397	  239.594	 
    1.50	     1.00	  17.265	   30.144	   50.752	   63.652	  120.265	  249.321	 
    2.00	     1.00	  18.280	   30.022	   56.457	   70.724	  120.777	  260.372	 
    2.50	     1.00	  17.017	   29.577	   61.256	   74.320	  118.120	  261.916	 
    3.00	     1.00	  15.400	   28.384	   55.996	   72.449	  119.450	  247.916	 
    3.50	     1.00	  14.830	   28.132	   50.354	   66.170	  122.045	  216.201	 
    4.00	     1.00	  15.192	   26.887	   49.841	   60.107	  116.998	  192.911	 
    4.50	     1.00	  15.547	   27.076	   50.406	   61.945	  109.692	  182.488	 
    5.00	     1.00	  15.941	   29.389	   53.741	   65.380	  106.294	  182.445	 
    5.50	     1.00	  18.228	   32.752	   57.408	   70.452	  108.071	  195.776	 
    6.00	     1.00	  19.022	   34.923	   63.934	   78.395	  115.427	  208.962	 
    6.50	     1.00	  20.683	   36.185	   71.393	   83.420	  131.050	  211.242	 
    7.00	     1.00	  19.377	   33.389	   65.804	   79.643	  123.413	  217.944	 
    7.50	     1.00	  16.305	   28.241	   57.540	   67.353	  107.042	  210.176	 
    8.00	     1.00	  14.165	   23.829	   47.752	   53.748	   90.339	  198.415	 
    8.50	     1.00	  11.594	   20.144	   39.690	   45.361	   78.446	  181.829	 
    9.00	     1.00	  10.997	   16.890	   33.507	   40.506	   70.031	  156.122	 
    9.50	     1.00	  11.427	   16.531	   32.604	   39.326	   63.836	  140.171	 
   10.00	     1.00	  11.362	   17.514	   34.093	   39.439	   66.395	  135.365	 
   10.50	     1.00	  11.200	   18.809	   36.440	   43.319	   70.406	  143.282	 
   11.00	     1.00	  12.428	   19.390	   39.714	   48.222	   76.448	  152.148	 
   11.50	     1.00	  14.026	   20.481	   42.702	   51.295	   79.173	  162.722	 
   12.00	     1.00	  14.974	   23.403	   47.921	   56.065	   82.609	  170.867	 
   12.50	     1.00	  17.486	   27.275	   54.093	   61.653	   86.383	  178.131	 
   13.00	     1.00	  17.454	   28.280	   56.452	   63.743	   88.571	  193.534	 
   13.50	     1.00	  16.247	   27.501	   56.196	   62.542	   92.458	  201.713	 
   14.00	     1.00	  16.541	   27.804	   56.235	   63.801	   98.735	  213.112	 
   14.50	     1.00	  17.689	   29.728	   61.771	   70.271	  109.526	  224.792	 
   15.00	     1.00	  18.358	   32.970	   67.809	   78.663	  117.290	  234.762	 
   15.50	     1.00	  18.726	   34.873	   77.746	   88.963	  126.667	  248.294	 
   16.00	     1.00	  20.198	   38.226	   85.048	   98.076	  141.145	  265.250	 
   16.50	     1.00	  21.310	   42.290	   91.695	  108.666	  173.875	  315.216	 
   17.00	     1.00	  23.538	   50.971	  104.898	  129.803	  203.897	  384.256	 
   17.50	     1.00	  28.719	   65.924	  139.345	  176.526	  268.820	  659.570	 
   18.00	     1.00	  36.686	   80.199	  168.426	  219.272	  310.107	  751.967	 
   18.50	     1.00	  50.023	   96.036	  183.353	  240.384	  307.941	  863.349	 
   19.00	     1.00	  50.745	   98.494	  192.217	  252.471	  328.524	  959.910	 
   19.50	     1.00	  44.431	   89.267	  186.063	  257.734	  385.177	  996.265	 
   20.00	     1.00	  37.162	   71.307	  157.086	  222.698	  463.325	  998.210	 
   20.50	     1.00	  30.610	   57.582	  123.612	  173.945	  405.672	  997.935	 
   21.00	     1.00	  31.815	   55.222	   96.960	  136.745	  310.445	  901.333	 
   21.50	     1.00	  27.424	   44.760	   83.148	  113.352	  252.011	  706.444	 
   22.00	     1.00	  21.467	   35.306	   71.413	   88.200	  208.320	  436.930	 
   22.50	     1.00	  20.415	   32.184	   64.442	   79.324	  173.004	  380.108	 
   23.00	     1.00	  19.899	   30.972	   56.717	   77.765	  151.831	  375.728	 
   23.50	     1.00	  19.630	   30.137	   54.470	   71.018	  134.166	  344.456	 
    0.00	     3.00	  18.747	   29.533	   53.399	   64.335	  116.933	  292.738	 
    0.50	     3.00	  17.340	   30.486	   52.744	   62.929	  114.772	  254.622	 
    1.00	     3.00	  15.908	   31.103	   52.018	   63.070	  113.100	  249.595	 
    1.50	     3.00	  17.465	   29.892	   51.723	   64.345	  116.837	  249.476	 
    2.00	     3.00	  18.012	   29.546	   57.569	   69.592	  119.031	  251.890	 
    2.50	     3.00	  16.450	   29.016	   60.863	   73.712	  115.521	  256.999	 
    3.00	     3.00	  15.203	   28.757	   55.756	   71.672	  118.822	  243.395	 
    3.50	     3.00	  14.266	   28.826	   52.422	   66.915	  119.873	  215.771	 
    4.00	     3.00	  15.110	   28.170	   51.377	   60.772	  115.248	  195.865	 
    4.50	     3.00	  16.212	   28.312	   52.404	   63.901	  109.358	  188.911	 
    5.00	     3.00	  16.299	   30.843	   57.213	   67.203	  104.832	  184.860	 
    5.50	     3.00	  18.411	   34.272	   60.009	   72.566	  107.769	  198.283	 
    6.00	     3.00	  18.635	   35.954	   66.152	   79.713	  121.263	  206.793	 
    6.50	     3.00	  20.020	   36.717	   71.588	   83.548	  132.428	  206.975	 
    7.00	     3.00	  18.773	   33.181	   66.443	   79.523	  123.652	  209.501	 
    7.50	     3.00	  15.631	   28.081	   56.658	   68.178	  106.358	  198.706	 
    8.00	     3.00	  13.298	   23.793	   48.483	   55.013	   86.978	  195.238	 
    8.50	     3.00	  11.307	   21.209	   41.990	   46.444	   75.036	  178.037	 
    9.00	     3.00	  10.891	   17.323	   34.172	   40.695	   67.464	  152.808	 
    9.50	     3.00	  11.058	   16.605	   33.211	   39.289	   62.847	  138.521	 
   10.00	     3.00	  10.891	   17.861	   34.998	   39.496	   65.444	  129.397	 
   10.50	     3.00	  11.125	   18.961	   36.753	   43.452	   69.599	  134.755	 
   11.00	     3.00	  12.206	   19.703	   39.273	   48.032	   74.429	  144.541	 
   11.50	     3.00	  13.397	   20.695	   42.830	   51.428	   78.132	  155.742	 
   12.00	     3.00	  14.384	   23.016	   47.860	   55.912	   80.575	  164.173	 
   12.50	     3.00	  17.038	   26.760	   53.838	   61.485	   85.400	  173.771	 
   13.00	     3.00	  17.500	   28.762	   57.627	   65.116	   87.053	  188.049	 
   13.50	     3.00	  16.390	   28.331	   58.111	   64.791	   89.585	  198.484	 
   14.00	     3.00	  15.781	   28.191	   59.333	   65.723	   96.231	  205.540	 
   14.50	     3.00	  17.456	   30.950	   63.634	   71.822	  105.406	  214.755	 
   15.00	     3.00	  18.132	   34.305	   70.854	   81.304	  119.882	  232.155	 
   15.50	     3.00	  18.398	   35.960	   79.955	   95.456	  135.576	  261.243	 
   16.00	     3.00	  20.030	   39.980	   90.097	  107.647	  165.623	  286.396	 
   16.50	     3.00	  21.651	   45.439	  100.269	  120.605	  178.677	  325.084	 
   17.00	     3.00	  23.447	   54.426	  111.677	  135.267	  217.444	  454.178	 
   17.50	     3.00	  28.564	   68.103	  141.338	  177.985	  254.938	  643.779	 
   18.00	     3.00	  35.555	   80.539	  165.911	  213.046	  288.309	  736.466	 
   18.50	     3.00	  44.524	   91.829	  179.392	  233.180	  293.729	  834.698	 
   19.00	     3.00	  49.436	   99.056	  197.369	  248.568	  316.717	  922.311	 
   19.50	     3.00	  44.041	   91.314	  189.369	  250.674	  371.954	  958.432	 
   20.00	     3.00	  34.397	   71.473	  159.726	  217.551	  416.260	  970.135	 
   20.50	     3.00	  30.793	   57.356	  126.295	  166.159	  365.647	  989.305	 
   21.00	     3.00	  30.840	   54.842	   99.590	  132.048	  294.398	  849.381	 
   21.50	     3.00	  28.494	   44.463	   87.466	  113.905	  246.462	  658.907	 
   22.00	     3.00	  19.587	   34.061	   70.034	   86.636	  199.728	  422.187	 
   22.50	     3.00	  19.758	   34.000	   65.392	   79.515	  168.201	  384.154	 
   23.00	     3.00	  19.528	   32.495	   58.882	   76.798	  145.880	  364.472	 
   23.50	     3.00	  18.697	   29.961	   54.158	   69.967	  129.026	  336.146	 
    0.00	     5.00	  19.281	   29.153	   53.934	   66.349	  115.061	  288.349	 
    0.50	     5.00	  17.906	   29.628	   53.433	   63.973	  109.949	  253.024	 
    1.00	     5.00	  16.480	   30.416	   52.541	   63.403	  110.393	  247.018	 
    1.50	     5.00	  17.955	   29.836	   52.147	   64.403	  114.617	  247.091	 
    2.00	     5.00	  18.464	   30.072	   57.081	   68.825	  117.543	  251.168	 
    2.50	     5.00	  16.963	   29.190	   61.309	   73.512	  115.874	  258.175	 
    3.00	     5.00	  16.171	   28.295	   55.685	   72.810	  117.991	  246.766	 
    3.50	     5.00	  14.016	   29.124	   53.512	   68.733	  115.620	  219.908	 
    4.00	     5.00	  14.409	   30.079	   53.385	   62.487	  115.105	  202.519	 
    4.50	     5.00	  15.615	   29.472	   55.150	   65.917	  106.883	  195.844	 
    5.00	     5.00	  16.726	   31.575	   60.318	   69.346	  104.123	  193.439	 
    5.50	     5.00	  19.035	   34.772	   63.561	   74.500	  111.611	  202.127	 
    6.00	     5.00	  18.650	   36.535	   68.413	   80.848	  124.991	  208.366	 
    6.50	     5.00	  20.001	   37.000	   72.479	   84.754	  134.635	  205.560	 
    7.00	     5.00	  19.100	   33.445	   66.923	   80.331	  124.536	  205.530	 
    7.50	     5.00	  15.714	   27.733	   58.155	   69.399	  105.548	  196.322	 
    8.00	     5.00	  13.477	   23.497	   48.994	   56.724	   84.225	  193.643	 
    8.50	     5.00	  11.442	   20.348	   42.715	   47.357	   73.201	  175.460	 
    9.00	     5.00	  10.551	   17.908	   35.158	   41.013	   65.618	  151.274	 
    9.50	     5.00	  10.602	   17.426	   34.218	   39.631	   62.419	  133.534	 
   10.00	     5.00	  10.570	   18.496	   35.953	   40.273	   63.492	  125.745	 
   10.50	     5.00	  10.767	   19.449	   37.575	   44.177	   68.600	  131.475	 
   11.00	     5.00	  11.877	   20.123	   39.783	   48.544	   74.627	  141.746	 
   11.50	     5.00	  13.205	   21.087	   43.462	   52.123	   77.537	  154.263	 
   12.00	     5.00	  14.297	   23.081	   48.658	   56.551	   81.102	  164.783	 
   12.50	     5.00	  16.148	   26.449	   54.287	   62.583	   83.652	  174.497	 
   13.00	     5.00	  17.882	   28.595	   58.351	   67.009	   86.882	  186.279	 
   13.50	     5.00	  17.125	   29.065	   59.654	   67.442	   89.906	  195.471	 
   14.00	     5.00	  16.760	   28.799	   61.961	   68.478	   94.769	  201.116	 
   14.50	     5.00	  17.759	   31.393	   66.434	   74.858	  104.557	  211.526	 
   15.00	     5.00	  18.948	   34.981	   73.799	   84.110	  121.863	  231.980	 
   15.50	     5.00	  19.093	   37.841	   82.688	  101.203	  154.394	  277.058	 
   16.00	     5.00	  20.431	   42.027	   96.321	  115.790	  173.601	  314.782	 
   16.50	     5.00	  22.553	   48.016	  105.552	  129.109	  186.833	  360.669	 
   17.00	     5.00	  25.726	   57.950	  121.986	  144.127	  217.475	  451.303	 
   17.50	     5.00	  29.593	   70.532	  147.232	  181.397	  247.405	  624.836	 
   18.00	     5.00	  35.183	   79.141	  160.853	  206.770	  273.362	  718.740	 
   18.50	     5.00	  41.839	   90.221	  178.705	  231.639	  276.338	  806.592	 
   19.00	     5.00	  49.399	   99.696	  204.918	  254.374	  308.148	  876.571	 
   19.50	     5.00	  45.318	   94.292	  197.780	  254.191	  350.618	  899.114	 
   20.00	     5.00	  34.419	   72.899	  165.034	  216.847	  378.957	  923.412	 
   20.50	     5.00	  30.823	   58.812	  129.568	  169.281	  340.745	  934.651	 
   21.00	     5.00	  31.017	   54.671	   98.006	  131.338	  280.122	  796.601	 
   21.50	     5.00	  28.539	   44.764	   87.955	  111.889	  240.106	  592.791	 
   22.00	     5.00	  21.269	   35.758	   77.447	   88.675	  198.949	  413.272	 
   22.50	     5.00	  20.408	   35.211	   69.018	   80.667	  171.015	  373.756	 
   23.00	     5.00	  20.930	   34.531	   62.582	   77.642	  147.283	  361.850	 
   23.50	     5.00	  20.216	   30.632	   54.637	   71.509	  127.875	  330.704	 
    0.00	     7.00	  21.017	   28.507	   53.761	   68.325	  114.647	  293.097	 
    0.50	     7.00	  19.310	   28.829	   53.669	   66.265	  110.020	  253.726	 
    1.00	     7.00	  17.049	   29.980	   52.239	   64.167	  109.854	  247.690	 
    1.50	     7.00	  18.662	   30.309	   53.846	   65.827	  111.615	  250.445	 
    2.00	     7.00	  18.545	   31.349	   59.484	   70.087	  114.534	  258.645	 
    2.50	     7.00	  17.919	   30.795	   61.557	   73.444	  119.036	  264.579	 
    3.00	     7.00	  16.904	   28.205	   57.039	   72.583	  117.367	  257.058	 
    3.50	     7.00	  14.530	   29.523	   55.139	   69.164	  117.662	  232.328	 
    4.00	     7.00	  15.031	   30.967	   56.164	   65.289	  113.553	  213.172	 
    4.50	     7.00	  16.040	   30.765	   59.503	   68.925	  106.647	  206.809	 
    5.00	     7.00	  17.386	   32.844	   63.153	   72.298	  109.657	  207.567	 
    5.50	     7.00	  19.051	   36.293	   65.779	   77.020	  115.470	  211.890	 
    6.00	     7.00	  19.694	   36.850	   71.424	   83.687	  126.170	  218.631	 
    6.50	     7.00	  20.723	   36.954	   73.596	   86.621	  131.856	  213.259	 
    7.00	     7.00	  19.054	   33.940	   68.647	   80.936	  123.948	  207.353	 
    7.50	     7.00	  16.921	   28.051	   59.270	   70.042	  103.948	  195.514	 
    8.00	     7.00	  13.086	   23.630	   48.944	   58.019	   84.009	  193.905	 
    8.50	     7.00	  11.411	   20.705	   41.864	   47.885	   71.140	  174.520	 
    9.00	     7.00	  11.050	   18.544	   37.385	   42.547	   65.015	  151.112	 
    9.50	     7.00	  11.213	   18.409	   35.906	   40.647	   62.051	  131.230	 
   10.00	     7.00	  11.050	   19.274	   36.847	   41.385	   62.744	  125.009	 
   10.50	     7.00	  11.141	   20.083	   38.034	   45.466	   68.196	  134.471	 
   11.00	     7.00	  11.958	   20.953	   40.504	   49.503	   74.143	  143.301	 
   11.50	     7.00	  14.045	   21.772	   44.915	   52.488	   77.219	  156.226	 
   12.00	     7.00	  14.999	   23.876	   49.631	   57.944	   80.748	  168.920	 
   12.50	     7.00	  16.518	   26.814	   56.023	   64.575	   84.294	  177.207	 
   13.00	     7.00	  18.542	   28.989	   60.505	   69.886	   88.532	  187.296	 
   13.50	     7.00	  18.404	   29.794	   61.986	   70.840	   91.749	  193.818	 
   14.00	     7.00	  17.990	   29.275	   63.764	   72.566	   95.430	  199.411	 
   14.50	     7.00	  18.396	   31.624	   67.920	   78.288	  105.528	  217.072	 
   15.00	     7.00	  20.592	   36.229	   77.805	   89.310	  123.074	  244.018	 
   15.50	     7.00	  21.171	   39.464	   88.085	  107.100	  158.476	  310.551	 
   16.00	     7.00	  22.491	   44.563	  100.146	  122.025	  178.674	  357.536	 
   16.50	     7.00	  24.318	   51.147	  111.506	  136.738	  191.699	  447.115	 
   17.00	     7.00	  27.060	   61.241	  129.856	  155.360	  210.293	  460.490	 
   17.50	     7.00	  30.856	   73.953	  150.734	  184.692	  239.788	  616.401	 
   18.00	     7.00	  34.330	   80.619	  158.902	  201.063	  252.896	  695.429	 
   18.50	     7.00	  43.475	   89.599	  180.613	  227.491	  267.060	  777.148	 
   19.00	     7.00	  51.697	  102.775	  209.409	  254.515	  289.573	  830.124	 
   19.50	     7.00	  48.852	   97.366	  202.709	  256.488	  332.929	  852.020	 
   20.00	     7.00	  35.808	   74.911	  167.211	  214.148	  336.584	  880.294	 
   20.50	     7.00	  32.740	   59.768	  124.471	  167.929	  306.997	  880.047	 
   21.00	     7.00	  31.113	   54.734	   95.337	  133.343	  263.419	  734.376	 
   21.50	     7.00	  29.765	   47.360	   87.856	  111.453	  239.154	  581.730	 
   22.00	     7.00	  23.112	   39.620	   79.516	   90.891	  194.545	  433.619	 
   22.50	     7.00	  21.066	   37.045	   71.775	   83.488	  170.057	  384.646	 
   23.00	     7.00	  22.124	   35.578	   64.697	   81.261	  148.627	  364.656	 
   23.50	     7.00	  21.173	   31.248	   56.743	   73.442	  128.484	  341.841	 
    0.00	     9.00	  22.822	   31.217	   57.573	   71.272	  116.523	  303.909	 
    0.50	     9.00	  21.208	   30.375	   53.970	   66.249	  111.982	  263.925	 
    1.00	     9.00	  18.321	   30.493	   54.118	   66.363	  109.355	  247.035	 
    1.50	     9.00	  19.779	   30.585	   56.041	   67.110	  113.367	  250.562	 
    2.00	     9.00	  19.343	   32.783	   60.791	   72.827	  118.132	  266.510	 
    2.50	     9.00	  18.531	   32.806	   63.139	   74.968	  123.290	  271.975	 
    3.00	     9.00	  16.695	   30.367	   59.724	   73.348	  121.592	  267.397	 
    3.50	     9.00	  15.439	   30.038	   58.134	   70.839	  117.462	  245.804	 
    4.00	     9.00	  16.040	   32.159	   60.206	   69.429	  114.533	  232.674	 
    4.50	     9.00	  16.913	   33.147	   62.703	   73.614	  109.709	  229.236	 
    5.00	     9.00	  17.563	   35.135	   65.842	   77.381	  111.997	  218.529	 
    5.50	     9.00	  19.578	   37.578	   69.530	   81.070	  117.824	  224.189	 
    6.00	     9.00	  21.221	   38.846	   74.229	   87.197	  125.468	  226.212	 
    6.50	     9.00	  21.433	   38.454	   76.653	   90.414	  128.492	  223.969	 
    7.00	     9.00	  19.457	   34.153	   70.359	   83.989	  121.503	  212.321	 
    7.50	     9.00	  17.476	   28.909	   61.139	   70.563	  102.515	  198.929	 
    8.00	     9.00	  14.146	   23.931	   50.176	   59.014	   83.935	  194.164	 
    8.50	     9.00	  12.025	   21.179	   43.194	   50.146	   71.221	  174.229	 
    9.00	     9.00	  11.768	   19.383	   39.240	   44.642	   66.045	  157.006	 
    9.50	     9.00	  11.758	   19.154	   37.704	   42.811	   61.796	  134.700	 
   10.00	     9.00	  11.900	   19.482	   37.931	   43.331	   63.282	  129.418	 
   10.50	     9.00	  11.893	   20.227	   39.269	   47.019	   68.200	  136.591	 
   11.00	     9.00	  12.840	   21.504	   42.178	   50.546	   73.356	  145.886	 
   11.50	     9.00	  15.387	   22.651	   45.945	   53.388	   75.997	  159.554	 
   12.00	     9.00	  17.250	   24.611	   52.096	   60.092	   81.539	  173.146	 
   12.50	     9.00	  18.084	   28.534	   59.963	   68.652	   86.976	  179.948	 
   13.00	     9.00	  19.459	   31.345	   63.900	   73.599	   91.611	  187.320	 
   13.50	     9.00	  19.121	   31.669	   64.474	   74.410	   94.600	  195.086	 
   14.00	     9.00	  18.952	   31.352	   66.159	   76.428	   97.548	  201.104	 
   14.50	     9.00	  19.676	   33.270	   71.922	   82.442	  108.231	  220.912	 
   15.00	     9.00	  21.728	   38.031	   81.976	   95.244	  126.279	  278.445	 
   15.50	     9.00	  22.536	   43.120	   94.364	  112.523	  157.359	  338.479	 
   16.00	     9.00	  25.052	   48.274	  107.410	  127.059	  177.698	  377.825	 
   16.50	     9.00	  26.750	   53.872	  117.903	  142.251	  187.990	  463.729	 
   17.00	     9.00	  29.469	   63.878	  136.315	  159.455	  207.416	  470.403	 
   17.50	     9.00	  32.990	   77.315	  152.195	  185.497	  229.902	  606.204	 
   18.00	     9.00	  35.265	   81.367	  157.923	  199.086	  240.522	  675.799	 
   18.50	     9.00	  43.172	   91.795	  182.208	  227.466	  256.454	  740.068	 
   19.00	     9.00	  51.234	  105.037	  212.272	  254.104	  283.590	  785.542	 
   19.50	     9.00	  46.763	   97.329	  200.492	  253.192	  313.684	  802.103	 
   20.00	     9.00	  34.328	   74.693	  163.711	  210.706	  297.891	  833.441	 
   20.50	     9.00	  32.055	   62.525	  123.677	  165.967	  272.603	  770.034	 
   21.00	     9.00	  32.089	   57.078	   97.626	  133.984	  254.074	  682.483	 
   21.50	     9.00	  29.907	   47.866	   94.145	  110.455	  234.014	  570.274	 
   22.00	     9.00	  23.721	   40.535	   84.422	   95.730	  195.921	  440.073	 
   22.50	     9.00	  21.338	   38.670	   74.321	   89.151	  170.490	  392.679	 
   23.00	     9.00	  22.974	   36.633	   68.333	   84.646	  148.013	  368.915	 
   23.50	     9.00	  23.922	   33.621	   62.552	   77.248	  130.836	  345.206	 
    0.00	    11.00	  25.047	   35.443	   59.108	   71.618	  115.695	  302.296	 
    0.50	    11.00	  23.142	   33.284	   56.569	   66.914	  111.331	  250.745	 
    1.00	    11.00	  19.144	   33.475	   55.768	   66.365	  110.054	  243.702	 
    1.50	    11.00	  19.401	   33.905	   58.046	   67.421	  111.443	  256.122	 
    2.00	    11.00	  19.748	   34.675	   62.240	   74.418	  118.914	  268.343	 
    2.50	    11.00	  18.744	   34.663	   63.133	   77.243	  128.548	  279.563	 
    3.00	    11.00	  17.920	   33.102	   63.338	   74.714	  125.426	  268.647	 
    3.50	    11.00	  16.646	   32.871	   61.664	   71.945	  119.655	  253.752	 
    4.00	    11.00	  16.920	   33.416	   63.986	   73.055	  114.311	  247.213	 
    4.50	    11.00	  18.852	   35.543	   67.200	   78.853	  109.432	  238.297	 
    5.00	    11.00	  19.737	   36.812	   70.409	   83.913	  110.610	  226.120	 
    5.50	    11.00	  20.498	   38.651	   73.830	   87.009	  117.967	  234.368	 
    6.00	    11.00	  22.306	   42.181	   79.224	   92.325	  124.866	  234.902	 
    6.50	    11.00	  21.849	   40.334	   80.033	   94.489	  126.225	  229.367	 
    7.00	    11.00	  20.045	   34.869	   72.062	   84.895	  117.620	  217.511	 
    7.50	    11.00	  18.105	   29.858	   62.140	   71.945	  101.427	  204.659	 
    8.00	    11.00	  14.676	   24.981	   51.922	   60.418	   84.063	  194.431	 
    8.50	    11.00	  12.758	   21.670	   44.212	   52.122	   72.002	  176.235	 
    9.00	    11.00	  12.325	   19.825	   40.476	   46.852	   67.229	  159.632	 
    9.50	    11.00	  12.202	   19.594	   38.824	   44.369	   62.841	  139.619	 
   10.00	    11.00	  12.685	   19.641	   38.523	   44.828	   62.829	  133.012	 
   10.50	    11.00	  12.162	   20.236	   40.784	   47.873	   66.259	  138.539	 
   11.00	    11.00	  13.314	   22.045	   43.568	   50.794	   72.156	  148.847	 
   11.50	    11.00	  15.511	   23.580	   47.484	   53.704	   75.737	  161.956	 
   12.00	    11.00	  18.393	   26.466	   54.959	   61.782	   81.844	  176.932	 
   12.50	    11.00	  19.694	   30.666	   63.670	   70.630	   88.691	  183.928	 
   13.00	    11.00	  20.174	   33.426	   67.898	   77.034	   94.325	  188.954	 
   13.50	    11.00	  19.421	   33.069	   68.493	   78.774	   97.995	  197.074	 
   14.00	    11.00	  19.836	   33.252	   70.790	   80.347	  101.527	  203.670	 
   14.50	    11.00	  20.113	   35.407	   76.807	   86.444	  109.659	  225.537	 
   15.00	    11.00	  22.920	   40.356	   87.119	   99.080	  129.330	  281.621	 
   15.50	    11.00	  24.084	   45.693	   98.784	  115.222	  154.855	  359.451	 
   16.00	    11.00	  27.911	   50.733	  112.305	  131.031	  174.976	  386.913	 
   16.50	    11.00	  27.018	   57.951	  123.152	  145.130	  185.133	  477.260	 
   17.00	    11.00	  30.723	   66.948	  137.826	  158.646	  197.337	  480.488	 
   17.50	    11.00	  33.366	   75.029	  151.312	  181.501	  216.120	  582.943	 
   18.00	    11.00	  34.174	   79.042	  155.696	  196.171	  228.716	  657.244	 
   18.50	    11.00	  41.101	   92.000	  180.620	  222.867	  248.435	  711.618	 
   19.00	    11.00	  49.494	  104.693	  206.322	  240.964	  269.473	  743.164	 
   19.50	    11.00	  45.217	   94.297	  193.900	  238.043	  281.607	  774.833	 
   20.00	    11.00	  33.239	   72.481	  156.958	  202.830	  261.970	  785.568	 
   20.50	    11.00	  31.507	   65.320	  119.623	  163.272	  248.506	  709.104	 
   21.00	    11.00	  35.030	   63.917	  100.803	  133.249	  245.077	  635.932	 
   21.50	    11.00	  32.315	   48.185	   96.960	  115.871	  225.951	  547.540	 
   22.00	    11.00	  26.075	   40.992	   86.733	  101.662	  190.346	  435.843	 
   22.50	    11.00	  22.604	   40.921	   78.318	   93.055	  168.915	  399.297	 
   23.00	    11.00	  25.239	   38.186	   72.345	   86.543	  143.318	  374.237	 
   23.50	    11.00	  25.878	   36.590	   67.495	   78.982	  129.142	  346.797	 
    0.00	    13.00	  24.645	   34.950	   61.142	   73.316	  114.464	  288.432	 
    0.50	    13.00	  23.127	   33.598	   57.782	   67.216	  111.309	  253.267	 
    1.00	    13.00	  20.714	   34.891	   57.950	   66.222	  109.582	  237.010	 
    1.50	    13.00	  20.474	   35.410	   59.547	   67.727	  111.875	  254.064	 
    2.00	    13.00	  19.977	   34.925	   63.321	   76.014	  121.825	  271.909	 
    2.50	    13.00	  18.452	   35.134	   65.533	   80.432	  131.237	  277.513	 
    3.00	    13.00	  17.425	   34.130	   66.416	   77.162	  130.816	  273.110	 
    3.50	    13.00	  16.113	   33.857	   65.290	   74.598	  120.899	  258.450	 
    4.00	    13.00	  17.690	   35.385	   66.605	   77.140	  113.323	  243.850	 
    4.50	    13.00	  19.548	   36.490	   71.031	   86.165	  111.340	  239.326	 
    5.00	    13.00	  21.477	   38.258	   75.819	   89.530	  113.054	  230.423	 
    5.50	    13.00	  21.570	   40.868	   78.911	   93.082	  121.119	  235.781	 
    6.00	    13.00	  22.810	   42.905	   83.948	   98.182	  125.816	  231.718	 
    6.50	    13.00	  22.128	   40.601	   83.309	   98.089	  124.812	  232.352	 
    7.00	    13.00	  19.936	   35.287	   74.166	   87.681	  116.238	  222.275	 
    7.50	    13.00	  18.351	   30.513	   63.882	   73.660	  102.152	  208.169	 
    8.00	    13.00	  14.853	   25.436	   53.053	   62.187	   87.580	  195.670	 
    8.50	    13.00	  12.738	   22.079	   46.849	   54.970	   74.669	  181.425	 
    9.00	    13.00	  11.986	   19.722	   42.083	   49.476	   69.515	  161.999	 
    9.50	    13.00	  11.914	   19.466	   39.173	   45.880	   66.209	  143.785	 
   10.00	    13.00	  12.352	   19.548	   39.528	   46.163	   63.816	  135.421	 
   10.50	    13.00	  12.240	   20.520	   42.537	   48.803	   67.303	  139.511	 
   11.00	    13.00	  13.062	   22.586	   45.076	   50.727	   71.984	  148.565	 
   11.50	    13.00	  15.067	   24.039	   48.404	   54.375	   74.727	  164.492	 
   12.00	    13.00	  18.003	   26.615	   55.614	   61.784	   81.771	  177.725	 
   12.50	    13.00	  20.461	   30.969	   63.589	   71.324	   89.353	  182.947	 
   13.00	    13.00	  20.854	   33.667	   68.818	   78.516	   97.093	  187.912	 
   13.50	    13.00	  21.035	   34.718	   72.669	   82.192	  102.016	  195.453	 
   14.00	    13.00	  20.829	   34.966	   76.862	   86.419	  107.113	  207.111	 
   14.50	    13.00	  21.300	   37.721	   83.580	   92.958	  115.350	  232.271	 
   15.00	    13.00	  23.044	   41.739	   91.322	  104.126	  132.318	  283.782	 
   15.50	    13.00	  24.686	   47.095	  102.640	  117.928	  155.345	  368.761	 
   16.00	    13.00	  27.754	   53.803	  114.669	  133.743	  171.923	  478.894	 
   16.50	    13.00	  28.727	   59.828	  125.135	  147.575	  182.913	  481.313	 
   17.00	    13.00	  31.942	   65.752	  134.754	  157.367	  190.051	  477.253	 
   17.50	    13.00	  31.208	   67.654	  143.852	  166.516	  202.483	  488.650	 
   18.00	    13.00	  33.645	   72.332	  150.764	  189.163	  220.477	  623.728	 
   18.50	    13.00	  39.848	   87.558	  173.378	  212.900	  245.628	  671.167	 
   19.00	    13.00	  47.367	   99.829	  195.118	  226.960	  267.515	  726.062	 
   19.50	    13.00	  42.482	   89.281	  182.529	  225.087	  265.434	  746.035	 
   20.00	    13.00	  32.077	   69.741	  146.753	  194.402	  246.016	  743.808	 
   20.50	    13.00	  30.880	   64.857	  121.112	  156.309	  228.121	  667.069	 
   21.00	    13.00	  35.688	   65.151	  104.391	  133.285	  234.207	  612.902	 
   21.50	    13.00	  33.720	   50.612	   96.282	  117.999	  219.618	  515.293	 
   22.00	    13.00	  27.166	   43.538	   87.094	  105.522	  187.235	  436.639	 
   22.50	    13.00	  22.421	   42.389	   80.709	   97.687	  162.773	  399.536	 
   23.00	    13.00	  24.939	   39.072	   73.596	   87.581	  141.171	  374.444	 
   23.50	    13.00	  24.833	   36.084	   69.257	   79.646	  126.302	  328.765	 
    0.00	    15.00	  24.198	   33.915	   60.916	   73.695	  112.391	  279.993	 
    0.50	    15.00	  24.426	   33.609	   60.084	   69.910	  110.245	  250.154	 
    1.00	    15.00	  22.107	   35.092	   59.176	   66.309	  108.615	  234.924	 
    1.50	    15.00	  21.808	   35.022	   60.308	   67.841	  110.835	  250.849	 
    2.00	    15.00	  21.511	   35.175	   64.633	   76.186	  124.254	  268.656	 
    2.50	    15.00	  19.093	   35.460	   66.240	   81.148	  133.268	  274.225	 
    3.00	    15.00	  17.845	   34.460	   69.610	   79.041	  129.919	  268.721	 
    3.50	    15.00	  16.897	   34.704	   68.048	   78.213	  120.389	  257.517	 
    4.00	    15.00	  19.661	   36.573	   68.933	   80.942	  112.686	  240.062	 
    4.50	    15.00	  20.987	   38.042	   75.952	   88.731	  113.528	  240.567	 
    5.00	    15.00	  21.940	   41.284	   80.734	   94.255	  117.121	  227.085	 
    5.50	    15.00	  23.697	   43.360	   85.760	   98.691	  124.827	  240.905	 
    6.00	    15.00	  25.106	   44.712	   87.907	  102.893	  128.082	  237.776	 
    6.50	    15.00	  23.219	   41.686	   85.830	  100.102	  125.582	  239.476	 
    7.00	    15.00	  20.981	   36.284	   75.514	   88.666	  117.391	  229.301	 
    7.50	    15.00	  18.748	   31.351	   65.322	   75.637	  103.197	  210.510	 
    8.00	    15.00	  15.359	   26.701	   55.333	   64.325	   88.696	  194.771	 
    8.50	    15.00	  13.426	   22.857	   48.549	   57.323	   78.658	  183.095	 
    9.00	    15.00	  11.928	   20.141	   44.445	   52.696	   71.751	  164.871	 
    9.50	    15.00	  11.958	   19.385	   40.115	   47.562	   68.205	  144.277	 
   10.00	    15.00	  12.417	   19.825	   40.563	   46.397	   64.931	  132.738	 
   10.50	    15.00	  12.239	   21.373	   43.821	   48.419	   66.831	  136.567	 
   11.00	    15.00	  13.334	   22.743	   46.312	   50.961	   70.754	  147.040	 
   11.50	    15.00	  15.620	   23.941	   49.081	   55.083	   73.364	  162.506	 
   12.00	    15.00	  17.718	   26.022	   54.486	   60.717	   78.564	  173.420	 
   12.50	    15.00	  19.469	   29.611	   61.066	   68.177	   87.307	  179.137	 
   13.00	    15.00	  21.404	   33.949	   67.699	   76.959	   95.216	  184.180	 
   13.50	    15.00	  22.402	   36.628	   75.754	   84.500	  102.902	  193.631	 
   14.00	    15.00	  23.044	   38.686	   83.063	   91.969	  110.391	  206.427	 
   14.50	    15.00	  23.753	   41.482	   89.468	   99.586	  120.141	  230.849	 
   15.00	    15.00	  24.662	   45.185	   96.565	  108.007	  134.513	  308.207	 
   15.50	    15.00	  25.400	   49.563	  106.672	  120.962	  153.602	  360.863	 
   16.00	    15.00	  28.397	   55.755	  116.791	  135.137	  171.340	  473.973	 
   16.50	    15.00	  31.992	   61.360	  125.285	  147.302	  179.860	  467.365	 
   17.00	    15.00	  33.648	   62.101	  129.927	  154.046	  182.332	  465.853	 
   17.50	    15.00	  32.072	   63.726	  134.735	  159.779	  191.227	  471.072	 
   18.00	    15.00	  35.303	   70.342	  145.564	  181.440	  210.192	  589.251	 
   18.50	    15.00	  40.563	   82.361	  165.601	  200.320	  233.637	  646.594	 
   19.00	    15.00	  48.146	   94.219	  182.957	  213.638	  255.750	  692.660	 
   19.50	    15.00	  44.146	   85.693	  170.403	  208.058	  248.210	  716.185	 
   20.00	    15.00	  32.957	   69.665	  142.749	  184.199	  227.924	  718.906	 
   20.50	    15.00	  33.468	   66.232	  121.340	  153.627	  222.208	  628.595	 
   21.00	    15.00	  36.197	   64.762	  108.911	  134.060	  233.339	  587.843	 
   21.50	    15.00	  33.952	   51.616	   97.165	  123.369	  217.771	  501.701	 
   22.00	    15.00	  30.473	   45.074	   88.159	  107.450	  187.523	  477.417	 
   22.50	    15.00	  25.094	   43.504	   82.284	   98.819	  159.387	  394.793	 
   23.00	    15.00	  25.041	   38.633	   75.382	   86.661	  138.487	  361.022	 
   23.50	    15.00	  24.050	   34.596	   67.872	   81.219	  121.370	  321.605	 
    0.00	    17.00	  25.215	   34.495	   62.269	   77.170	  110.532	  268.119	 
    0.50	    17.00	  26.137	   34.371	   62.202	   73.460	  106.798	  242.647	 
    1.00	    17.00	  23.358	   35.880	   60.562	   69.152	  108.062	  231.219	 
    1.50	    17.00	  21.567	   35.634	   60.961	   68.270	  110.339	  243.152	 
    2.00	    17.00	  22.540	   35.631	   64.910	   76.399	  123.502	  256.712	 
    2.50	    17.00	  20.294	   35.590	   68.633	   83.161	  131.645	  275.458	 
    3.00	    17.00	  19.828	   34.379	   71.025	   81.420	  128.218	  272.243	 
    3.50	    17.00	  17.873	   35.319	   69.871	   80.664	  118.008	  250.443	 
    4.00	    17.00	  19.560	   37.614	   70.993	   82.375	  112.745	  235.389	 
    4.50	    17.00	  21.740	   40.567	   79.095	   90.727	  115.336	  235.364	 
    5.00	    17.00	  22.134	   45.658	   85.996	   97.551	  119.966	  229.911	 
    5.50	    17.00	  24.568	   47.554	   90.569	  105.027	  128.725	  246.341	 
    6.00	    17.00	  25.508	   48.210	   93.285	  107.766	  129.880	  283.130	 
    6.50	    17.00	  23.340	   43.859	   88.332	  101.775	  125.476	  242.567	 
    7.00	    17.00	  21.393	   37.563	   78.601	   90.697	  117.199	  234.290	 
    7.50	    17.00	  19.149	   32.818	   68.061	   77.209	  103.116	  210.641	 
    8.00	    17.00	  16.340	   28.031	   57.477	   65.980	   91.310	  192.118	 
    8.50	    17.00	  13.825	   23.746	   51.087	   60.464	   84.497	  181.301	 
    9.00	    17.00	  12.105	   20.801	   45.824	   55.029	   74.682	  164.597	 
    9.50	    17.00	  12.110	   19.728	   41.732	   49.198	   69.055	  144.991	 
   10.00	    17.00	  12.804	   20.769	   42.151	   47.571	   65.312	  130.636	 
   10.50	    17.00	  12.859	   22.623	   44.958	   49.484	   66.590	  134.717	 
   11.00	    17.00	  13.995	   23.491	   47.352	   52.206	   69.884	  145.631	 
   11.50	    17.00	  15.600	   23.966	   49.193	   56.288	   73.567	  156.876	 
   12.00	    17.00	  17.231	   25.585	   53.110	   59.711	   77.477	  167.250	 
   12.50	    17.00	  17.716	   28.032	   58.414	   65.412	   83.255	  172.303	 
   13.00	    17.00	  20.192	   32.197	   65.018	   74.977	   92.419	  178.088	 
   13.50	    17.00	  22.511	   37.723	   76.407	   84.756	  103.879	  188.326	 
   14.00	    17.00	  23.743	   42.091	   86.790	   95.323	  113.489	  201.780	 
   14.50	    17.00	  24.966	   44.844	   94.647	  105.143	  123.888	  230.977	 
   15.00	    17.00	  25.851	   47.993	  101.240	  113.399	  136.102	  308.302	 
   15.50	    17.00	  26.435	   52.165	  109.904	  124.297	  153.400	  346.222	 
   16.00	    17.00	  29.091	   57.608	  120.198	  135.920	  169.115	  458.734	 
   16.50	    17.00	  30.681	   61.255	  125.024	  144.466	  175.395	  448.840	 
   17.00	    17.00	  31.482	   60.659	  124.098	  143.971	  176.181	  442.673	 
   17.50	    17.00	  30.737	   62.247	  129.597	  151.590	  179.771	  453.979	 
   18.00	    17.00	  34.550	   70.026	  140.681	  171.310	  198.000	  494.352	 
   18.50	    17.00	  39.436	   81.539	  160.795	  190.971	  223.792	  622.750	 
   19.00	    17.00	  46.475	   89.534	  172.639	  201.945	  247.698	  668.390	 
   19.50	    17.00	  42.097	   82.897	  160.219	  196.601	  235.109	  686.462	 
   20.00	    17.00	  32.920	   69.252	  142.344	  178.523	  219.504	  692.905	 
   20.50	    17.00	  35.638	   66.797	  122.900	  152.556	  218.804	  602.855	 
   21.00	    17.00	  37.594	   68.320	  111.907	  134.910	  229.090	  583.028	 
   21.50	    17.00	  35.044	   54.888	  107.000	  124.405	  219.540	  487.504	 
   22.00	    17.00	  30.135	   45.891	   88.096	  110.228	  184.554	  476.369	 
   22.50	    17.00	  27.249	   44.335	   86.342	   98.494	  155.453	  379.660	 
   23.00	    17.00	  25.398	   39.186	   75.868	   88.231	  132.801	  353.061	 
   23.50	    17.00	  23.597	   34.480	   66.503	   82.322	  119.464	  299.124	 
    0.00	    19.00	  25.737	   34.501	   64.139	   78.394	  109.712	  253.551	 
    0.50	    19.00	  27.307	   34.643	   65.484	   73.580	  106.259	  225.847	 
    1.00	    19.00	  23.998	   36.333	   62.957	   71.638	  107.356	  225.916	 
    1.50	    19.00	  21.559	   35.774	   61.249	   68.292	  106.341	  234.445	 
    2.00	    19.00	  21.791	   35.659	   66.394	   75.941	  120.867	  245.554	 
    2.50	    19.00	  20.784	   35.622	   69.833	   83.668	  126.635	  273.937	 
    3.00	    19.00	  20.296	   34.139	   70.428	   82.086	  122.942	  262.496	 
    3.50	    19.00	  18.729	   34.916	   69.527	   80.576	  115.664	  239.887	 
    4.00	    19.00	  19.346	   37.160	   71.474	   82.541	  110.902	  231.406	 
    4.50	    19.00	  20.889	   41.142	   79.428	   90.357	  114.647	  226.610	 
    5.00	    19.00	  22.023	   46.292	   87.945	  100.591	  121.931	  226.143	 
    5.50	    19.00	  25.409	   50.319	   97.155	  108.197	  130.761	  279.871	 
    6.00	    19.00	  25.765	   50.741	   96.824	  111.186	  132.477	  288.712	 
    6.50	    19.00	  22.820	   44.775	   90.706	  101.449	  126.784	  239.350	 
    7.00	    19.00	  21.477	   38.360	   80.252	   91.072	  116.263	  234.581	 
    7.50	    19.00	  19.809	   34.070	   69.656	   77.662	  102.446	  212.864	 
    8.00	    19.00	  17.226	   29.004	   59.332	   66.988	   92.951	  190.433	 
    8.50	    19.00	  14.561	   24.297	   52.378	   60.252	   85.951	  176.564	 
    9.00	    19.00	  12.426	   21.049	   45.977	   54.622	   75.839	  160.014	 
    9.50	    19.00	  12.131	   20.103	   41.748	   49.106	   69.328	  141.820	 
   10.00	    19.00	  13.328	   21.798	   42.819	   47.872	   66.305	  130.438	 
   10.50	    19.00	  13.593	   23.445	   45.962	   50.287	   67.085	  132.735	 
   11.00	    19.00	  14.742	   23.537	   47.591	   53.124	   69.291	  141.424	 
   11.50	    19.00	  15.934	   23.970	   49.183	   56.593	   71.538	  150.090	 
   12.00	    19.00	  17.200	   25.623	   52.249	   58.963	   75.142	  159.310	 
   12.50	    19.00	  17.671	   27.198	   56.562	   63.136	   80.122	  165.268	 
   13.00	    19.00	  19.944	   30.263	   62.398	   71.422	   89.290	  173.318	 
   13.50	    19.00	  22.110	   36.765	   73.729	   82.713	  101.042	  180.937	 
   14.00	    19.00	  23.945	   42.267	   85.823	   95.119	  112.146	  196.688	 
   14.50	    19.00	  25.511	   46.005	   94.933	  106.745	  122.882	  253.257	 
   15.00	    19.00	  26.932	   49.237	  102.120	  114.328	  134.544	  296.131	 
   15.50	    19.00	  27.508	   53.743	  110.634	  125.778	  149.225	  330.527	 
   16.00	    19.00	  29.733	   58.639	  119.237	  134.515	  160.522	  434.825	 
   16.50	    19.00	  30.140	   59.109	  120.119	  135.060	  164.665	  435.761	 
   17.00	    19.00	  28.039	   56.348	  117.416	  132.565	  162.812	  327.624	 
   17.50	    19.00	  26.889	   57.749	  122.154	  135.904	  171.155	  434.179	 
   18.00	    19.00	  30.791	   67.774	  137.017	  160.890	  188.646	  472.811	 
   18.50	    19.00	  37.464	   77.832	  151.243	  181.054	  210.684	  594.884	 
   19.00	    19.00	  43.274	   82.097	  161.601	  192.610	  225.738	  648.999	 
   19.50	    19.00	  40.965	   78.889	  156.818	  188.343	  220.577	  663.954	 
   20.00	    19.00	  32.563	   68.404	  141.128	  175.275	  208.320	  668.353	 
   20.50	    19.00	  33.427	   67.888	  122.691	  152.103	  211.907	  577.847	 
   21.00	    19.00	  36.669	   70.218	  111.602	  138.119	  221.999	  581.862	 
   21.50	    19.00	  36.161	   59.471	  107.686	  126.736	  213.043	  484.323	 
   22.00	    19.00	  31.908	   48.502	   94.735	  110.629	  180.106	  464.972	 
   22.50	    19.00	  27.488	   43.661	   85.081	   96.508	  151.151	  362.375	 
   23.00	    19.00	  24.369	   38.388	   74.070	   87.655	  129.035	  334.808	 
   23.50	    19.00	  23.004	   34.764	   67.267	   81.997	  115.280	  284.830	 
    0.00	    21.00	  25.780	   34.917	   64.882	   75.262	  109.907	  247.594	 
    0.50	    21.00	  28.116	   35.590	   65.451	   72.127	  105.529	  224.334	 
    1.00	    21.00	  24.430	   35.736	   63.561	   69.792	  105.276	  218.292	 
    1.50	    21.00	  22.015	   35.984	   60.726	   68.401	  104.115	  232.617	 
    2.00	    21.00	  21.041	   35.481	   67.061	   76.151	  116.482	  231.815	 
    2.50	    21.00	  20.371	   35.760	   70.618	   84.530	  120.546	  265.130	 
    3.00	    21.00	  19.856	   34.862	   71.102	   82.557	  117.325	  248.722	 
    3.50	    21.00	  18.660	   34.905	   69.709	   79.771	  111.541	  231.119	 
    4.00	    21.00	  18.623	   36.867	   70.783	   82.296	  108.228	  223.407	 
    4.50	    21.00	  20.291	   39.886	   78.790	   90.131	  112.469	  217.565	 
    5.00	    21.00	  22.660	   45.463	   89.149	  100.822	  121.476	  221.168	 
    5.50	    21.00	  27.536	   51.337	  100.515	  110.163	  129.443	  278.208	 
    6.00	    21.00	  26.130	   50.168	   98.054	  109.821	  130.642	  285.787	 
    6.50	    21.00	  22.302	   44.106	   90.179	  100.677	  124.099	  233.618	 
    7.00	    21.00	  21.145	   38.022	   79.973	   89.606	  113.304	  231.650	 
    7.50	    21.00	  20.093	   33.609	   69.607	   77.099	   99.938	  206.056	 
    8.00	    21.00	  17.207	   29.435	   59.964	   66.674	   89.988	  184.297	 
    8.50	    21.00	  13.880	   24.466	   50.960	   58.710	   84.569	  166.934	 
    9.00	    21.00	  11.901	   20.631	   44.791	   52.705	   75.197	  149.790	 
    9.50	    21.00	  12.132	   20.225	   40.570	   47.651	   68.562	  133.029	 
   10.00	    21.00	  13.470	   22.383	   42.876	   47.555	   65.309	  126.254	 
   10.50	    21.00	  14.155	   23.733	   46.007	   50.040	   65.626	  126.718	 
   11.00	    21.00	  14.882	   23.875	   47.760	   53.202	   68.540	  135.168	 
   11.50	    21.00	  16.571	   24.494	   49.467	   56.531	   69.910	  142.635	 
   12.00	    21.00	  17.686	   26.208	   52.184	   58.830	   72.188	  149.712	 
   12.50	    21.00	  18.201	   27.915	   55.543	   61.353	   75.868	  156.660	 
   13.00	    21.00	  19.221	   29.618	   59.728	   68.068	   83.812	  164.432	 
   13.50	    21.00	  20.941	   34.404	   69.223	   78.928	   94.791	  173.174	 
   14.00	    21.00	  23.922	   40.913	   81.341	   90.732	  105.257	  189.119	 
   14.50	    21.00	  24.593	   45.558	   91.229	  103.164	  116.626	  215.218	 
   15.00	    21.00	  26.066	   48.873	   99.925	  112.754	  128.282	  282.530	 
   15.50	    21.00	  26.106	   53.104	  107.964	  121.848	  140.066	  308.685	 
   16.00	    21.00	  27.179	   56.719	  114.760	  126.447	  148.653	  318.535	 
   16.50	    21.00	  26.930	   56.067	  114.018	  126.430	  151.087	  301.491	 
   17.00	    21.00	  24.572	   51.550	  107.991	  124.166	  149.974	  309.773	 
   17.50	    21.00	  24.408	   52.840	  113.504	  129.284	  160.084	  320.456	 
   18.00	    21.00	  27.752	   62.702	  127.835	  148.572	  175.718	  449.410	 
   18.50	    21.00	  34.805	   73.090	  140.053	  169.034	  197.013	  494.114	 
   19.00	    21.00	  40.994	   76.103	  148.456	  183.497	  211.746	  622.701	 
   19.50	    21.00	  38.970	   74.116	  144.828	  177.570	  209.854	  650.619	 
   20.00	    21.00	  33.196	   66.821	  136.945	  170.623	  197.940	  647.255	 
   20.50	    21.00	  31.234	   67.366	  127.648	  152.983	  209.859	  539.851	 
   21.00	    21.00	  35.843	   71.912	  117.645	  139.830	  220.196	  546.713	 
   21.50	    21.00	  35.869	   62.957	  113.893	  131.079	  213.109	  504.221	 
   22.00	    21.00	  30.306	   50.429	   98.814	  112.477	  175.385	  448.710	 
   22.50	    21.00	  26.344	   42.235	   81.336	   95.449	  143.787	  345.782	 
   23.00	    21.00	  22.641	   37.565	   71.644	   85.615	  123.526	  324.646	 
   23.50	    21.00	  22.554	   35.023	   67.154	   76.208	  113.742	  265.569	 
    0.00	    23.00	  25.940	   35.540	   65.070	   74.623	  107.303	  241.736	 
    0.50	    23.00	  29.246	   36.110	   64.317	   70.620	  103.173	  222.680	 
    1.00	    23.00	  26.298	   36.257	   62.505	   68.332	  105.491	  213.564	 
    1.50	    23.00	  24.062	   36.218	   62.216	   69.530	  104.227	  233.029	 
    2.00	    23.00	  21.735	   34.783	   67.248	   75.375	  113.029	  234.384	 
    2.50	    23.00	  20.121	   34.938	   71.586	   84.164	  115.106	  254.151	 
    3.00	    23.00	  19.452	   34.551	   71.589	   82.900	  112.837	  239.118	 
    3.50	    23.00	  18.204	   34.692	   69.856	   79.551	  109.892	  224.524	 
    4.00	    23.00	  17.614	   36.560	   69.791	   81.222	  107.020	  217.136	 
    4.50	    23.00	  20.829	   39.301	   78.120	   90.804	  113.551	  213.077	 
    5.00	    23.00	  23.562	   45.789	   90.647	  102.907	  121.812	  216.376	 
    5.50	    23.00	  27.853	   51.243	   98.892	  110.048	  127.813	  273.648	 
    6.00	    23.00	  25.426	   48.247	   96.449	  108.667	  130.383	  284.169	 
    6.50	    23.00	  21.858	   43.068	   87.987	   98.685	  122.796	  230.246	 
    7.00	    23.00	  20.844	   37.412	   80.150	   87.500	  111.049	  219.974	 
    7.50	    23.00	  19.566	   33.125	   68.387	   75.960	   98.157	  199.580	 
    8.00	    23.00	  16.220	   29.407	   59.145	   65.106	   87.476	  179.214	 
    8.50	    23.00	  13.694	   23.661	   49.021	   55.748	   81.381	  155.496	 
    9.00	    23.00	  11.430	   19.851	   43.216	   48.665	   72.668	  140.476	 
    9.50	    23.00	  11.703	   19.779	   39.923	   45.606	   66.399	  127.177	 
   10.00	    23.00	  12.951	   21.411	   41.642	   47.022	   64.535	  122.140	 
   10.50	    23.00	  13.763	   23.338	   45.332	   49.563	   64.905	  123.581	 
   11.00	    23.00	  14.598	   24.024	   47.335	   52.781	   67.575	  130.022	 
   11.50	    23.00	  15.918	   24.460	   49.048	   56.273	   69.212	  135.501	 
   12.00	    23.00	  16.915	   25.256	   50.757	   57.804	   70.316	  141.515	 
   12.50	    23.00	  17.016	   26.041	   53.882	   59.606	   73.128	  146.194	 
   13.00	    23.00	  17.936	   28.333	   57.476	   65.228	   78.613	  155.485	 
   13.50	    23.00	  19.464	   30.880	   63.688	   73.350	   88.063	  164.863	 
   14.00	    23.00	  21.597	   36.681	   73.664	   83.766	   98.666	  177.489	 
   14.50	    23.00	  22.166	   42.342	   85.300	   95.788	  109.120	  203.190	 
   15.00	    23.00	  23.425	   46.302	   94.640	  106.740	  119.737	  269.771	 
   15.50	    23.00	  23.819	   49.858	  102.134	  115.747	  128.446	  291.923	 
   16.00	    23.00	  24.248	   51.017	  107.339	  118.268	  135.540	  294.836	 
   16.50	    23.00	  23.848	   49.930	  104.159	  116.065	  139.351	  280.911	 
   17.00	    23.00	  22.495	   47.948	   97.958	  117.163	  140.924	  283.787	 
   17.50	    23.00	  23.135	   50.906	  106.064	  122.111	  150.719	  299.680	 
   18.00	    23.00	  25.991	   59.314	  118.109	  141.036	  166.176	  426.247	 
   18.50	    23.00	  31.809	   67.293	  130.956	  160.426	  185.219	  467.077	 
   19.00	    23.00	  38.728	   71.441	  135.089	  171.729	  200.711	  602.020	 
   19.50	    23.00	  37.955	   71.895	  137.460	  171.563	  198.535	  620.737	 
   20.00	    23.00	  34.457	   67.679	  134.757	  168.673	  197.802	  621.976	 
   20.50	    23.00	  33.682	   70.533	  130.328	  152.975	  205.714	  512.608	 
   21.00	    23.00	  37.172	   73.117	  124.372	  143.425	  219.865	  529.278	 
   21.50	    23.00	  36.369	   60.889	  121.713	  132.653	  216.381	  485.408	 
   22.00	    23.00	  30.943	   49.008	  104.377	  116.360	  172.952	  423.158	 
   22.50	    23.00	  24.741	   39.890	   77.668	   93.563	  140.399	  331.969	 
   23.00	    23.00	  22.495	   36.296	   69.576	   82.241	  118.010	  311.452	 
   23.50	    23.00	  23.619	   34.917	   65.579	   75.507	  111.440	  257.511	 
    0.00	    25.00	  27.178	   35.329	   64.397	   75.086	  105.992	  238.642	 
    0.50	    25.00	  30.321	   35.294	   63.863	   72.627	  105.029	  219.882	 
    1.00	    25.00	  29.007	   36.155	   63.168	   70.200	  105.084	  216.142	 
    1.50	    25.00	  25.498	   36.442	   64.256	   72.552	  103.809	  232.925	 
    2.00	    25.00	  23.160	   34.489	   68.482	   78.052	  110.488	  235.179	 
    2.50	    25.00	  20.649	   34.985	   71.591	   83.708	  111.694	  245.916	 
    3.00	    25.00	  20.182	   34.220	   70.609	   82.715	  110.287	  233.774	 
    3.50	    25.00	  18.513	   34.207	   69.844	   78.721	  108.490	  218.297	 
    4.00	    25.00	  18.183	   36.522	   71.274	   80.927	  106.288	  208.265	 
    4.50	    25.00	  20.155	   41.131	   80.106	   92.071	  114.263	  207.832	 
    5.00	    25.00	  23.603	   48.056	   91.719	  104.140	  120.979	  209.527	 
    5.50	    25.00	  26.960	   49.978	   96.875	  109.206	  126.153	  270.320	 
    6.00	    25.00	  25.961	   46.718	   92.561	  104.961	  128.043	  216.374	 
    6.50	    25.00	  22.037	   42.461	   87.753	   96.885	  118.351	  219.158	 
    7.00	    25.00	  21.200	   36.808	   79.895	   86.498	  108.238	  211.076	 
    7.50	    25.00	  19.295	   32.605	   68.545	   75.058	   96.224	  191.560	 
    8.00	    25.00	  16.502	   28.347	   58.295	   63.428	   85.659	  168.571	 
    8.50	    25.00	  14.090	   22.926	   47.199	   53.388	   76.894	  146.313	 
    9.00	    25.00	  12.193	   19.650	   41.551	   47.056	   69.252	  131.420	 
    9.50	    25.00	  11.968	   19.238	   38.933	   44.749	   64.385	  120.980	 
   10.00	    25.00	  12.925	   20.280	   40.475	   45.902	   63.384	  116.261	 
   10.50	    25.00	  14.009	   22.644	   43.826	   48.797	   63.507	  119.432	 
   11.00	    25.00	  14.957	   24.005	   46.873	   52.042	   65.845	  124.085	 
   11.50	    25.00	  16.287	   24.312	   48.629	   55.806	   67.219	  127.208	 
   12.00	    25.00	  16.775	   24.297	   49.583	   57.896	   67.898	  132.736	 
   12.50	    25.00	  16.944	   24.940	   52.282	   58.850	   71.310	  140.470	 
   13.00	    25.00	  18.532	   27.110	   55.894	   63.056	   75.572	  146.603	 
   13.50	    25.00	  19.190	   29.334	   60.286	   68.999	   82.888	  154.688	 
   14.00	    25.00	  19.777	   32.454	   67.757	   76.956	   90.593	  162.900	 
   14.50	    25.00	  21.189	   37.391	   77.198	   87.593	   99.625	  189.718	 
   15.00	    25.00	  22.315	   41.913	   86.032	   97.697	  110.338	  216.158	 
   15.50	    25.00	  23.445	   44.277	   92.814	  106.799	  116.931	  278.975	 
   16.00	    25.00	  23.243	   44.931	   95.403	  106.820	  122.762	  276.003	 
   16.50	    25.00	  22.783	   45.364	   95.429	  106.007	  126.586	  231.405	 
   17.00	    25.00	  23.025	   45.760	   94.668	  110.099	  129.333	  266.621	 
   17.50	    25.00	  23.143	   49.989	  101.528	  118.656	  142.925	  287.095	 
   18.00	    25.00	  26.469	   57.956	  115.266	  134.747	  158.518	  402.781	 
   18.50	    25.00	  31.947	   65.359	  127.686	  153.588	  173.422	  441.907	 
   19.00	    25.00	  38.400	   68.374	  131.526	  167.569	  188.623	  581.173	 
   19.50	    25.00	  39.664	   71.374	  137.402	  167.483	  186.102	  603.443	 
   20.00	    25.00	  36.589	   70.673	  140.922	  168.763	  192.078	  598.374	 
   20.50	    25.00	  37.444	   73.184	  133.884	  157.426	  207.662	  501.565	 
   21.00	    25.00	  38.472	   72.905	  125.518	  145.966	  222.213	  502.567	 
   21.50	    25.00	  38.671	   60.992	  123.013	  136.221	  217.186	  468.366	 
   22.00	    25.00	  32.117	   50.151	  110.758	  114.899	  172.424	  396.071	 
   22.50	    25.00	  26.472	   40.278	   79.698	   92.771	  137.477	  310.803	 
   23.00	    25.00	  23.325	   36.037	   69.096	   81.142	  114.124	  294.814	 
   23.50	    25.00	  24.860	   34.996	   67.042	   76.965	  108.320	  253.340	 
    0.00	    27.00	  27.150	   34.685	   66.257	   78.247	  104.608	  231.062	 
    0.50	    27.00	  30.548	   34.853	   67.496	   74.471	  104.715	  215.099	 
    1.00	    27.00	  30.420	   35.866	   66.107	   73.469	  106.458	  211.697	 
    1.50	    27.00	  26.740	   36.320	   66.485	   74.603	  104.038	  226.763	 
    2.00	    27.00	  24.214	   35.406	   70.387	   79.850	  108.539	  229.962	 
    2.50	    27.00	  22.376	   35.251	   70.880	   82.901	  108.906	  236.996	 
    3.00	    27.00	  21.392	   33.943	   70.689	   81.575	  107.354	  222.691	 
    3.50	    27.00	  19.394	   33.841	   69.757	   78.025	  106.155	  208.623	 
    4.00	    27.00	  19.574	   37.095	   73.588	   81.793	  105.285	  199.760	 
    4.50	    27.00	  22.144	   43.406	   83.779	   93.193	  114.321	  201.859	 
    5.00	    27.00	  24.697	   49.788	   92.990	  105.004	  120.647	  202.458	 
    5.50	    27.00	  26.639	   49.406	   95.148	  107.790	  125.647	  269.763	 
    6.00	    27.00	  25.365	   45.553	   91.042	  102.481	  124.930	  210.339	 
    6.50	    27.00	  21.949	   41.996	   86.940	   94.868	  116.293	  209.975	 
    7.00	    27.00	  20.421	   36.686	   80.835	   85.712	  108.363	  203.057	 
    7.50	    27.00	  19.508	   31.655	   68.755	   74.561	   95.725	  182.724	 
    8.00	    27.00	  17.022	   27.499	   57.661	   63.037	   84.561	  162.434	 
    8.50	    27.00	  14.380	   23.187	   46.935	   52.921	   74.281	  140.217	 
    9.00	    27.00	  12.788	   19.516	   41.042	   46.501	   66.725	  123.987	 
    9.50	    27.00	  12.074	   18.988	   38.589	   44.384	   61.875	  114.936	 
   10.00	    27.00	  13.303	   20.037	   40.818	   45.589	   61.107	  109.798	 
   10.50	    27.00	  14.373	   22.440	   44.585	   48.907	   62.413	  115.304	 
   11.00	    27.00	  15.337	   23.965	   47.309	   51.915	   65.723	  119.479	 
   11.50	    27.00	  17.378	   24.424	   48.563	   55.301	   66.598	  124.324	 
   12.00	    27.00	  17.560	   24.362	   49.408	   57.494	   67.590	  127.690	 
   12.50	    27.00	  17.844	   25.025	   52.548	   58.619	   69.941	  134.977	 
   13.00	    27.00	  19.178	   27.529	   56.558	   62.495	   74.424	  140.148	 
   13.50	    27.00	  19.306	   29.108	   59.676	   67.134	   79.180	  145.573	 
   14.00	    27.00	  19.083	   30.512	   64.400	   73.125	   85.415	  151.232	 
   14.50	    27.00	  20.073	   34.026	   70.929	   81.250	   93.602	  172.713	 
   15.00	    27.00	  20.772	   37.652	   78.096	   89.163	  103.203	  197.811	 
   15.50	    27.00	  21.567	   39.322	   83.541	   98.611	  109.843	  213.969	 
   16.00	    27.00	  21.953	   40.511	   86.828	   97.989	  114.489	  218.150	 
   16.50	    27.00	  21.922	   42.167	   88.556	   98.992	  120.067	  214.947	 
   17.00	    27.00	  21.883	   44.188	   92.531	  102.708	  125.163	  219.888	 
   17.50	    27.00	  22.814	   48.904	   99.570	  114.736	  136.792	  280.540	 
   18.00	    27.00	  26.619	   55.905	  111.028	  131.008	  149.185	  324.938	 
   18.50	    27.00	  31.727	   64.429	  127.140	  147.259	  165.779	  419.707	 
   19.00	    27.00	  38.271	   67.789	  130.894	  160.759	  178.233	  451.406	 
   19.50	    27.00	  39.707	   70.649	  139.669	  165.405	  177.971	  488.361	 
   20.00	    27.00	  38.636	   71.601	  146.330	  169.845	  188.195	  494.783	 
   20.50	    27.00	  38.921	   76.080	  142.638	  160.621	  212.431	  481.157	 
   21.00	    27.00	  40.854	   77.564	  129.355	  150.098	  226.843	  471.616	 
   21.50	    27.00	  43.226	   65.527	  122.682	  137.001	  215.981	  448.245	 
   22.00	    27.00	  32.744	   51.953	  111.242	  114.389	  173.064	  370.138	 
   22.50	    27.00	  27.371	   41.523	   81.023	   91.911	  133.142	  290.593	 
   23.00	    27.00	  23.918	   35.758	   69.533	   83.540	  112.334	  277.562	 
   23.50	    27.00	  25.829	   34.206	   68.942	   80.208	  106.591	  249.946	 
    0.00	    29.00	  26.183	   34.763	   68.554	   81.523	  103.809	  220.611	 
    0.50	    29.00	  29.214	   34.719	   66.997	   75.870	  105.379	  205.309	 
    1.00	    29.00	  30.889	   35.273	   66.464	   75.309	  105.573	  206.074	 
    1.50	    29.00	  27.849	   36.232	   66.618	   75.954	  103.518	  215.922	 
    2.00	    29.00	  24.491	   35.791	   69.809	   80.797	  107.741	  227.286	 
    2.50	    29.00	  22.312	   34.937	   70.665	   83.433	  106.772	  223.058	 
    3.00	    29.00	  21.426	   33.297	   70.782	   81.538	  105.160	  209.645	 
    3.50	    29.00	  19.782	   33.677	   71.164	   78.540	  105.321	  200.551	 
    4.00	    29.00	  19.701	   37.980	   76.036	   82.371	  106.789	  194.439	 
    4.50	    29.00	  23.848	   44.866	   86.411	   95.469	  114.793	  196.776	 
    5.00	    29.00	  25.564	   50.510	   94.353	  105.300	  118.997	  196.687	 
    5.50	    29.00	  26.662	   48.820	   94.128	  106.016	  124.012	  204.998	 
    6.00	    29.00	  24.343	   44.115	   88.350	  100.444	  123.210	  206.233	 
    6.50	    29.00	  21.392	   41.276	   84.711	   93.426	  116.365	  203.245	 
    7.00	    29.00	  20.307	   36.400	   79.813	   84.475	  106.588	  196.662	 
    7.50	    29.00	  19.439	   31.220	   68.926	   75.034	   94.010	  176.980	 
    8.00	    29.00	  17.301	   27.821	   56.437	   62.959	   84.011	  156.384	 
    8.50	    29.00	  15.746	   23.530	   46.694	   52.247	   72.749	  134.111	 
    9.00	    29.00	  13.345	   19.703	   41.108	   46.049	   65.063	  118.870	 
    9.50	    29.00	  12.543	   19.043	   38.855	   43.828	   59.898	  109.838	 
   10.00	    29.00	  13.975	   20.570	   40.945	   45.026	   58.858	  107.105	 
   10.50	    29.00	  15.081	   22.951	   44.702	   48.611	   60.664	  111.946	 
   11.00	    29.00	  15.941	   23.983	   47.305	   51.566	   64.570	  115.515	 
   11.50	    29.00	  18.000	   24.044	   48.397	   55.092	   65.949	  120.679	 
   12.00	    29.00	  18.317	   23.850	   48.968	   56.975	   67.485	  123.672	 
   12.50	    29.00	  18.308	   24.644	   52.364	   57.949	   68.993	  129.206	 
   13.00	    29.00	  19.308	   27.326	   55.785	   60.988	   73.666	  131.968	 
   13.50	    29.00	  19.188	   29.161	   59.141	   65.673	   76.768	  137.559	 
   14.00	    29.00	  18.638	   29.480	   62.008	   70.482	   82.321	  141.163	 
   14.50	    29.00	  18.895	   31.290	   66.938	   76.689	   88.065	  160.881	 
   15.00	    29.00	  19.748	   34.875	   72.412	   83.015	   96.280	  182.847	 
   15.50	    29.00	  19.899	   37.440	   77.246	   89.791	  103.007	  195.631	 
   16.00	    29.00	  20.576	   38.469	   80.659	   92.836	  107.790	  198.510	 
   16.50	    29.00	  20.756	   39.864	   84.416	   94.089	  114.213	  200.048	 
   17.00	    29.00	  21.456	   42.315	   89.960	   98.527	  119.638	  203.072	 
   17.50	    29.00	  22.696	   47.021	   96.833	  109.298	  130.744	  275.793	 
   18.00	    29.00	  25.704	   53.942	  108.553	  126.223	  140.580	  306.120	 
   18.50	    29.00	  30.395	   62.086	  121.036	  140.941	  158.081	  400.899	 
   19.00	    29.00	  37.511	   65.856	  130.076	  152.076	  166.270	  429.787	 
   19.50	    29.00	  40.554	   69.019	  138.756	  161.403	  166.510	  460.677	 
   20.00	    29.00	  38.445	   70.177	  146.375	  164.807	  176.220	  461.901	 
   20.50	    29.00	  39.392	   79.499	  145.722	  161.658	  209.048	  467.240	 
   21.00	    29.00	  43.483	   81.071	  132.872	  153.129	  226.274	  462.522	 
   21.50	    29.00	  39.712	   64.809	  124.099	  139.375	  217.337	  449.058	 
   22.00	    29.00	  33.165	   52.221	  106.914	  113.705	  173.714	  353.937	 
   22.50	    29.00	  26.243	   42.409	   82.387	   92.394	  134.731	  273.253	 
   23.00	    29.00	  24.076	   36.084	   72.381	   84.068	  112.439	  263.621	 
   23.50	    29.00	  26.081	   35.089	   70.233	   82.641	  106.174	  237.059	 
    0.00	    31.00	  25.345	   35.924	   71.330	   83.678	  106.754	  214.225	 
    0.50	    31.00	  28.137	   35.165	   69.465	   79.512	  106.353	  204.419	 
    1.00	    31.00	  30.209	   35.380	   67.098	   77.161	  106.282	  198.663	 
    1.50	    31.00	  27.602	   36.408	   67.141	   79.687	  105.850	  202.365	 
    2.00	    31.00	  24.206	   35.933	   70.556	   82.452	  109.799	  209.524	 
    2.50	    31.00	  21.962	   34.831	   71.654	   84.935	  108.270	  206.116	 
    3.00	    31.00	  20.668	   33.732	   70.954	   83.074	  108.733	  199.832	 
    3.50	    31.00	  20.015	   34.371	   72.779	   80.307	  106.943	  195.532	 
    4.00	    31.00	  20.295	   38.406	   77.670	   85.098	  107.727	  190.309	 
    4.50	    31.00	  23.192	   45.166	   87.409	   97.923	  114.931	  194.706	 
    5.00	    31.00	  25.758	   49.546	   93.415	  105.314	  118.517	  193.293	 
    5.50	    31.00	  26.544	   47.229	   92.225	  104.958	  121.505	  201.037	 
    6.00	    31.00	  24.264	   42.886	   87.379	   98.649	  120.572	  204.237	 
    6.50	    31.00	  21.537	   40.842	   82.954	   91.639	  115.233	  198.805	 
    7.00	    31.00	  20.050	   36.223	   78.221	   83.194	  104.034	  190.177	 
    7.50	    31.00	  19.656	   30.970	   69.159	   74.302	   92.672	  169.295	 
    8.00	    31.00	  17.604	   27.155	   56.080	   62.777	   81.790	  149.546	 
    8.50	    31.00	  15.823	   22.927	   45.815	   51.500	   70.929	  126.596	 
    9.00	    31.00	  13.441	   19.622	   40.552	   45.396	   63.073	  112.231	 
    9.50	    31.00	  12.801	   18.682	   38.181	   42.971	   58.150	  103.745	 
   10.00	    31.00	  13.991	   20.190	   40.289	   44.821	   56.933	  101.844	 
   10.50	    31.00	  14.948	   22.370	   44.024	   48.175	   59.308	  106.504	 
   11.00	    31.00	  15.936	   23.485	   46.596	   51.399	   63.129	  112.281	 
   11.50	    31.00	  17.846	   23.509	   47.672	   54.378	   65.524	  118.243	 
   12.00	    31.00	  18.366	   23.505	   48.605	   56.266	   66.189	  120.536	 
   12.50	    31.00	  18.231	   23.683	   50.472	   57.354	   68.419	  125.421	 
   13.00	    31.00	  18.773	   25.928	   54.005	   59.035	   72.438	  125.760	 
   13.50	    31.00	  18.314	   28.461	   57.545	   63.724	   74.624	  128.763	 
   14.00	    31.00	  17.940	   29.083	   59.437	   68.403	   79.019	  133.647	 
   14.50	    31.00	  17.571	   29.595	   62.773	   71.920	   84.047	  150.429	 
   15.00	    31.00	  18.421	   31.994	   67.280	   78.034	   89.887	  164.746	 
   15.50	    31.00	  18.652	   34.472	   73.033	   84.254	   96.225	  180.231	 
   16.00	    31.00	  19.441	   36.558	   77.253	   87.311	  101.648	  182.316	 
   16.50	    31.00	  19.478	   38.920	   79.485	   90.075	  108.764	  186.187	 
   17.00	    31.00	  20.800	   40.624	   84.613	   94.064	  112.678	  192.859	 
   17.50	    31.00	  22.005	   44.657	   91.689	  102.739	  123.188	  207.996	 
   18.00	    31.00	  24.804	   51.955	  103.269	  117.866	  132.746	  293.659	 
   18.50	    31.00	  29.169	   58.960	  114.008	  132.631	  148.065	  344.927	 
   19.00	    31.00	  35.143	   62.073	  121.058	  142.146	  155.207	  408.250	 
   19.50	    31.00	  40.678	   66.077	  132.637	  151.249	  156.650	  439.939	 
   20.00	    31.00	  38.647	   67.962	  137.983	  156.130	  165.928	  448.306	 
   20.50	    31.00	  41.740	   77.592	  141.831	  160.123	  200.034	  443.550	 
   21.00	    31.00	  42.936	   80.118	  134.373	  153.156	  218.486	  441.717	 
   21.50	    31.00	  38.610	   64.326	  121.479	  140.083	  214.641	  449.999	 
   22.00	    31.00	  34.522	   51.957	  108.660	  112.310	  175.037	  329.825	 
   22.50	    31.00	  26.112	   41.821	   85.725	   97.164	  139.593	  258.503	 
   23.00	    31.00	  24.335	   37.867	   74.773	   88.776	  115.718	  239.743	 
   23.50	    31.00	  24.863	   36.576	   72.095	   85.780	  110.556	  228.869	 
    0.00	    33.00	  28.414	   40.202	   79.155	   87.439	  111.400	  203.764	 
    0.50	    33.00	  27.731	   39.038	   75.602	   82.409	  109.824	  198.332	 
    1.00	    33.00	  29.648	   37.949	   73.427	   78.841	  110.130	  187.453	 
    1.50	    33.00	  30.411	   38.940	   72.385	   81.912	  108.440	  187.926	 
    2.00	    33.00	  26.130	   39.306	   75.490	   85.771	  112.531	  194.654	 
    2.50	    33.00	  24.129	   38.838	   76.436	   88.415	  113.121	  196.849	 
    3.00	    33.00	  22.582	   38.543	   76.214	   85.216	  114.395	  196.636	 
    3.50	    33.00	  22.023	   37.725	   78.349	   84.197	  111.591	  195.459	 
    4.00	    33.00	  23.554	   40.681	   84.249	   90.432	  113.407	  195.531	 
    4.50	    33.00	  25.373	   46.721	   92.168	  100.290	  119.799	  201.719	 
    5.00	    33.00	  26.480	   49.496	   95.707	  106.062	  122.268	  200.922	 
    5.50	    33.00	  26.548	   46.269	   92.737	  105.155	  122.920	  203.710	 
    6.00	    33.00	  24.632	   42.238	   87.778	   98.545	  120.415	  205.989	 
    6.50	    33.00	  21.337	   40.077	   81.062	   91.058	  114.258	  199.937	 
    7.00	    33.00	  20.381	   35.943	   76.344	   82.314	  105.735	  188.990	 
    7.50	    33.00	  20.032	   30.839	   67.295	   73.776	   93.275	  166.965	 
    8.00	    33.00	  17.204	   26.249	   54.936	   63.044	   82.197	  145.520	 
    8.50	    33.00	  14.613	   22.102	   44.908	   51.704	   70.722	  123.525	 
    9.00	    33.00	  12.785	   19.190	   39.583	   45.439	   62.639	  109.958	 
    9.50	    33.00	  12.256	   18.389	   37.645	   42.578	   57.420	  100.723	 
   10.00	    33.00	  13.465	   19.390	   39.517	   44.454	   55.599	   97.989	 
   10.50	    33.00	  14.905	   22.169	   43.259	   47.656	   58.394	  102.841	 
   11.00	    33.00	  15.794	   23.486	   46.519	   51.212	   61.699	  109.925	 
   11.50	    33.00	  16.958	   23.411	   47.590	   53.614	   64.516	  113.389	 
   12.00	    33.00	  17.403	   23.537	   48.509	   55.511	   66.033	  116.038	 
   12.50	    33.00	  17.532	   23.575	   49.553	   56.134	   68.170	  119.006	 
   13.00	    33.00	  17.782	   24.886	   52.337	   57.253	   71.024	  118.959	 
   13.50	    33.00	  17.041	   27.339	   56.335	   60.944	   73.128	  121.965	 
   14.00	    33.00	  17.568	   28.535	   57.808	   65.894	   76.179	  128.521	 
   14.50	    33.00	  17.200	   28.998	   58.592	   69.292	   80.978	  142.004	 
   15.00	    33.00	  17.394	   29.511	   61.287	   72.924	   86.644	  153.108	 
   15.50	    33.00	  17.721	   31.850	   68.136	   77.943	   91.856	  165.386	 
   16.00	    33.00	  18.834	   35.330	   73.601	   81.788	   95.864	  169.635	 
   16.50	    33.00	  19.850	   37.806	   74.199	   84.894	  103.553	  172.196	 
   17.00	    33.00	  20.473	   37.658	   76.066	   88.592	  108.371	  180.591	 
   17.50	    33.00	  20.744	   40.175	   84.012	   95.357	  118.237	  194.399	 
   18.00	    33.00	  23.443	   46.732	   95.547	  108.586	  124.897	  281.384	 
   18.50	    33.00	  26.779	   54.180	  104.923	  124.322	  139.169	  307.527	 
   19.00	    33.00	  33.149	   57.342	  112.347	  134.909	  144.119	  393.738	 
   19.50	    33.00	  38.236	   59.911	  118.381	  142.148	  148.563	  425.492	 
   20.00	    33.00	  39.440	   61.267	  127.426	  146.524	  156.823	  441.292	 
   20.50	    33.00	  43.269	   74.519	  133.855	  151.489	  191.685	  432.190	 
   21.00	    33.00	  42.746	   84.297	  133.634	  147.586	  211.577	  434.225	 
   21.50	    33.00	  39.974	   68.825	  120.520	  137.845	  207.953	  442.113	 
   22.00	    33.00	  37.825	   53.883	  109.136	  117.406	  174.962	  320.730	 
   22.50	    33.00	  27.118	   44.269	   91.036	   99.500	  142.026	  247.243	 
   23.00	    33.00	  24.833	   40.836	   81.283	   94.913	  123.407	  225.811	 
   23.50	    33.00	  28.501	   40.004	   77.645	   91.184	  117.222	  219.111	 
    0.00	    35.00	  29.536	   41.873	   81.775	   87.573	  115.471	  201.158	 
    0.50	    35.00	  26.827	   41.279	   77.744	   84.071	  114.109	  194.383	 
    1.00	    35.00	  27.944	   39.713	   76.247	   81.325	  112.888	  179.745	 
    1.50	    35.00	  30.374	   42.218	   75.015	   83.149	  111.374	  181.437	 
    2.00	    35.00	  27.320	   43.167	   79.513	   88.065	  116.848	  190.773	 
    2.50	    35.00	  25.163	   42.365	   80.551	   90.788	  119.072	  192.355	 
    3.00	    35.00	  24.607	   41.990	   80.016	   89.508	  119.994	  198.084	 
    3.50	    35.00	  24.921	   40.863	   82.155	   89.924	  119.521	  201.841	 
    4.00	    35.00	  26.474	   43.944	   89.867	   97.278	  120.485	  207.756	 
    4.50	    35.00	  28.898	   50.880	   98.579	  104.664	  125.071	  211.239	 
    5.00	    35.00	  28.945	   52.670	  101.800	  108.245	  124.369	  277.264	 
    5.50	    35.00	  28.205	   47.884	   96.584	  105.972	  124.460	  206.796	 
    6.00	    35.00	  26.273	   43.141	   88.807	   98.718	  119.500	  206.858	 
    6.50	    35.00	  22.977	   40.056	   81.102	   90.867	  114.533	  199.939	 
    7.00	    35.00	  21.660	   36.414	   75.605	   82.727	  104.576	  187.541	 
    7.50	    35.00	  20.965	   31.735	   67.463	   74.362	   92.595	  166.840	 
    8.00	    35.00	  17.561	   27.075	   56.750	   64.228	   82.296	  145.191	 
    8.50	    35.00	  15.184	   22.861	   46.888	   52.915	   69.810	  121.598	 
    9.00	    35.00	  13.011	   19.787	   40.793	   45.663	   62.044	  108.680	 
    9.50	    35.00	  12.469	   18.502	   38.577	   42.906	   56.146	   97.762	 
   10.00	    35.00	  12.931	   19.110	   39.520	   43.947	   54.161	   94.709	 
   10.50	    35.00	  14.592	   21.166	   43.044	   46.690	   56.534	   99.707	 
   11.00	    35.00	  15.399	   23.195	   46.248	   49.813	   60.149	  104.876	 
   11.50	    35.00	  15.604	   23.349	   47.407	   53.461	   63.242	  108.058	 
   12.00	    35.00	  16.340	   23.296	   48.177	   54.980	   65.189	  108.292	 
   12.50	    35.00	  16.683	   23.311	   48.840	   55.955	   66.557	  111.367	 
   13.00	    35.00	  16.259	   24.155	   51.444	   56.107	   68.666	  113.083	 
   13.50	    35.00	  15.741	   26.188	   55.293	   58.705	   71.309	  115.727	 
   14.00	    35.00	  16.826	   27.543	   57.057	   63.214	   74.223	  124.004	 
   14.50	    35.00	  17.156	   28.209	   57.644	   67.104	   76.926	  134.500	 
   15.00	    35.00	  17.868	   28.822	   59.174	   70.197	   81.217	  143.532	 
   15.50	    35.00	  17.817	   30.738	   64.967	   73.418	   86.786	  154.747	 
   16.00	    35.00	  18.795	   33.511	   70.548	   76.701	   91.087	  154.891	 
   16.50	    35.00	  19.628	   35.067	   71.802	   79.991	   97.957	  161.756	 
   17.00	    35.00	  20.422	   35.369	   72.460	   83.272	  101.282	  170.321	 
   17.50	    35.00	  20.766	   37.157	   77.467	   89.415	  110.036	  182.915	 
   18.00	    35.00	  22.703	   42.301	   88.288	  101.301	  115.873	  201.726	 
   18.50	    35.00	  25.472	   48.378	   98.744	  116.059	  130.908	  293.427	 
   19.00	    35.00	  32.902	   52.981	  104.729	  128.153	  137.149	  338.951	 
   19.50	    35.00	  36.631	   56.884	  107.744	  136.152	  141.841	  419.134	 
   20.00	    35.00	  40.445	   60.029	  116.166	  143.698	  149.939	  429.304	 
   20.50	    35.00	  41.337	   73.608	  129.646	  148.753	  180.323	  433.184	 
   21.00	    35.00	  43.569	   94.180	  131.861	  146.134	  202.079	  434.943	 
   21.50	    35.00	  40.731	   68.550	  123.051	  135.678	  202.749	  437.024	 
   22.00	    35.00	  38.915	   58.250	  111.545	  122.149	  174.826	  306.220	 
   22.50	    35.00	  32.392	   48.077	   96.526	  106.087	  147.185	  237.659	 
   23.00	    35.00	  26.215	   42.575	   87.321	   99.158	  127.713	  223.277	 
   23.50	    35.00	  29.218	   41.375	   83.125	   92.921	  120.536	  217.331	 
    0.00	    37.00	  26.840	   39.022	   78.037	   86.286	  119.454	  198.020	 
    0.50	    37.00	  26.164	   38.187	   76.247	   83.095	  116.738	  192.140	 
    1.00	    37.00	  26.643	   39.126	   76.581	   81.528	  115.471	  173.346	 
    1.50	    37.00	  28.439	   42.667	   76.575	   85.041	  117.341	  176.139	 
    2.00	    37.00	  26.469	   43.629	   78.502	   88.909	  121.331	  187.717	 
    2.50	    37.00	  24.536	   42.502	   81.460	   94.477	  124.176	  193.391	 
    3.00	    37.00	  25.046	   41.986	   80.917	   93.502	  126.593	  203.647	 
    3.50	    37.00	  25.843	   42.177	   84.026	   95.322	  127.547	  212.224	 
    4.00	    37.00	  27.724	   46.234	   93.051	  102.627	  127.272	  222.988	 
    4.50	    37.00	  29.525	   52.313	  101.743	  110.678	  131.128	  275.610	 
    5.00	    37.00	  29.742	   53.322	  102.443	  111.904	  128.763	  275.990	 
    5.50	    37.00	  28.908	   48.682	   97.269	  107.934	  126.629	  276.915	 
    6.00	    37.00	  26.739	   43.730	   88.537	   99.747	  119.626	  207.320	 
    6.50	    37.00	  24.195	   40.019	   80.840	   90.906	  114.487	  202.035	 
    7.00	    37.00	  21.536	   36.339	   74.368	   83.315	  104.582	  188.726	 
    7.50	    37.00	  20.825	   32.475	   67.385	   74.670	   93.647	  168.470	 
    8.00	    37.00	  17.962	   27.674	   57.992	   64.943	   81.967	  143.490	 
    8.50	    37.00	  15.420	   23.423	   47.927	   53.928	   70.033	  120.666	 
    9.00	    37.00	  13.442	   20.144	   41.479	   46.190	   61.814	  106.820	 
    9.50	    37.00	  12.385	   18.721	   38.074	   43.049	   55.438	   96.671	 
   10.00	    37.00	  11.871	   18.634	   38.192	   43.265	   53.525	   93.425	 
   10.50	    37.00	  13.356	   19.497	   40.742	   45.331	   54.903	   95.746	 
   11.00	    37.00	  14.087	   21.590	   43.850	   48.276	   58.357	  100.866	 
   11.50	    37.00	  15.330	   23.142	   46.302	   52.029	   61.995	  104.733	 
   12.00	    37.00	  15.808	   23.200	   47.688	   54.170	   63.743	  104.181	 
   12.50	    37.00	  15.823	   22.996	   48.083	   55.368	   65.742	  106.591	 
   13.00	    37.00	  15.310	   23.399	   49.775	   55.221	   66.675	  108.354	 
   13.50	    37.00	  14.790	   24.649	   52.821	   57.060	   68.824	  111.213	 
   14.00	    37.00	  15.562	   25.946	   54.790	   59.650	   71.269	  118.081	 
   14.50	    37.00	  16.336	   27.415	   56.253	   63.345	   74.211	  128.159	 
   15.00	    37.00	  16.908	   28.189	   58.269	   67.926	   78.478	  136.334	 
   15.50	    37.00	  17.181	   29.788	   62.274	   70.899	   82.261	  144.227	 
   16.00	    37.00	  17.845	   31.340	   66.709	   73.328	   86.819	  147.876	 
   16.50	    37.00	  18.656	   32.783	   68.576	   75.192	   91.207	  153.405	 
   17.00	    37.00	  19.269	   33.990	   70.475	   79.017	   93.969	  161.467	 
   17.50	    37.00	  19.403	   36.280	   74.613	   87.456	  102.879	  172.833	 
   18.00	    37.00	  21.601	   40.462	   82.836	   94.135	  109.101	  186.949	 
   18.50	    37.00	  25.562	   45.010	   93.587	  110.624	  124.397	  274.125	 
   19.00	    37.00	  31.419	   50.362	  101.784	  122.356	  129.965	  299.119	 
   19.50	    37.00	  37.204	   55.096	  111.296	  138.828	  136.025	  415.267	 
   20.00	    37.00	  43.451	   69.348	  129.370	  154.483	  144.062	  431.513	 
   20.50	    37.00	  48.704	   84.899	  143.462	  154.501	  171.522	  440.539	 
   21.00	    37.00	  44.939	   95.970	  133.091	  146.015	  192.311	  439.955	 
   21.50	    37.00	  42.611	   63.136	  123.079	  135.822	  196.456	  434.839	 
   22.00	    37.00	  39.780	   56.586	  111.510	  123.762	  176.477	  300.902	 
   22.50	    37.00	  31.090	   49.505	   96.834	  111.286	  148.184	  273.719	 
   23.00	    37.00	  27.098	   42.609	   86.470	  104.046	  132.047	  216.050	 
   23.50	    37.00	  26.485	   40.419	   82.272	   92.243	  124.108	  212.417	 
    0.00	    39.00	  26.526	   39.498	   77.953	   85.647	  120.612	  198.235	 
    0.50	    39.00	  26.254	   39.087	   77.652	   83.482	  117.465	  190.152	 
    1.00	    39.00	  28.050	   41.451	   79.547	   82.697	  119.752	  169.727	 
    1.50	    39.00	  29.825	   44.597	   81.107	   87.148	  120.974	  172.684	 
    2.00	    39.00	  28.917	   44.642	   84.878	   93.406	  124.554	  183.461	 
    2.50	    39.00	  26.672	   43.084	   86.096	   98.666	  128.742	  201.306	 
    3.00	    39.00	  26.891	   43.187	   87.924	  100.141	  131.437	  220.020	 
    3.50	    39.00	  27.637	   44.196	   91.684	  102.648	  133.330	  234.117	 
    4.00	    39.00	  29.186	   48.626	   97.134	  108.911	  133.229	  283.614	 
    4.50	    39.00	  29.809	   52.469	  103.730	  113.990	  137.347	  277.706	 
    5.00	    39.00	  30.165	   52.245	  102.606	  115.765	  133.206	  269.960	 
    5.50	    39.00	  28.522	   47.564	   95.360	  108.796	  128.639	  270.418	 
    6.00	    39.00	  25.506	   42.785	   88.279	   99.927	  120.561	  209.052	 
    6.50	    39.00	  23.458	   40.047	   80.709	   92.228	  113.900	  199.456	 
    7.00	    39.00	  21.637	   35.831	   73.956	   83.102	  104.992	  188.842	 
    7.50	    39.00	  20.219	   31.782	   66.685	   75.455	   94.031	  168.614	 
    8.00	    39.00	  17.311	   27.884	   57.525	   65.533	   82.680	  145.017	 
    8.50	    39.00	  14.875	   23.417	   47.437	   55.154	   70.808	  122.362	 
    9.00	    39.00	  13.337	   19.848	   41.148	   47.317	   62.407	  107.843	 
    9.50	    39.00	  12.334	   18.543	   38.073	   43.462	   55.285	   96.439	 
   10.00	    39.00	  11.896	   18.586	   37.740	   43.013	   52.362	   91.291	 
   10.50	    39.00	  12.500	   18.784	   39.675	   44.256	   53.849	   93.426	 
   11.00	    39.00	  13.733	   20.604	   42.332	   47.257	   57.311	   98.451	 
   11.50	    39.00	  15.142	   22.948	   45.897	   51.239	   60.618	  102.672	 
   12.00	    39.00	  15.463	   23.452	   47.884	   53.737	   61.588	  101.685	 
   12.50	    39.00	  15.409	   23.165	   47.843	   55.090	   63.365	  102.580	 
   13.00	    39.00	  15.104	   23.274	   48.875	   54.952	   64.286	  104.980	 
   13.50	    39.00	  14.283	   23.972	   51.122	   55.512	   65.902	  107.232	 
   14.00	    39.00	  14.913	   24.910	   53.268	   57.068	   68.435	  112.544	 
   14.50	    39.00	  15.797	   26.178	   55.976	   60.512	   71.429	  123.671	 
   15.00	    39.00	  16.140	   27.365	   57.812	   65.446	   75.880	  132.742	 
   15.50	    39.00	  16.631	   29.111	   61.176	   68.841	   80.182	  140.678	 
   16.00	    39.00	  17.408	   30.424	   62.961	   71.597	   83.023	  142.204	 
   16.50	    39.00	  18.070	   30.848	   65.793	   72.820	   86.388	  145.008	 
   17.00	    39.00	  18.763	   32.214	   69.382	   76.512	   89.928	  151.572	 
   17.50	    39.00	  19.784	   35.281	   73.403	   85.186	   98.267	  164.348	 
   18.00	    39.00	  21.475	   39.343	   78.147	   92.546	  104.501	  180.241	 
   18.50	    39.00	  23.536	   42.633	   85.492	  105.403	  118.400	  203.778	 
   19.00	    39.00	  29.686	   46.917	  100.558	  120.751	  129.302	  290.138	 
   19.50	    39.00	  38.633	   66.977	  122.735	  146.608	  138.270	  418.889	 
   20.00	    39.00	  72.264	   89.808	  145.075	  169.638	  145.205	  438.094	 
   20.50	    39.00	  61.532	   90.610	  154.962	  164.097	  173.201	  445.325	 
   21.00	    39.00	  51.203	   96.039	  135.138	  147.530	  192.725	  435.613	 
   21.50	    39.00	  45.876	   65.106	  120.738	  133.435	  199.068	  433.024	 
   22.00	    39.00	  41.706	   55.783	  109.406	  122.467	  172.802	  286.166	 
   22.50	    39.00	  31.077	   49.716	   97.798	  112.182	  148.121	  265.186	 
   23.00	    39.00	  27.397	   44.454	   87.042	  105.085	  132.084	  208.728	 
   23.50	    39.00	  26.085	   40.945	   82.157	   94.364	  125.684	  209.276	 
    0.00	    41.00	  27.636	   42.888	   82.552	   90.592	  122.186	  201.047	 
    0.50	    41.00	  28.056	   43.249	   80.197	   87.827	  120.582	  191.953	 
    1.00	    41.00	  30.100	   44.490	   84.247	   87.744	  122.487	  172.057	 
    1.50	    41.00	  30.389	   47.031	   84.569	   92.669	  125.853	  177.049	 
    2.00	    41.00	  32.251	   46.453	   89.714	   99.121	  126.985	  189.327	 
    2.50	    41.00	  29.628	   45.568	   92.326	  104.717	  136.155	  221.712	 
    3.00	    41.00	  29.589	   46.637	   96.360	  106.938	  140.385	  284.836	 
    3.50	    41.00	  31.032	   49.494	  100.505	  110.443	  140.986	  274.255	 
    4.00	    41.00	  30.975	   52.434	  104.026	  115.761	  139.846	  282.864	 
    4.50	    41.00	  31.495	   54.503	  106.801	  119.593	  142.095	  278.242	 
    5.00	    41.00	  31.125	   53.617	  104.344	  117.849	  137.093	  267.119	 
    5.50	    41.00	  28.757	   48.285	   96.586	  110.344	  129.708	  260.865	 
    6.00	    41.00	  26.169	   43.421	   88.234	  100.906	  119.811	  208.352	 
    6.50	    41.00	  24.605	   40.754	   81.688	   91.922	  111.992	  197.171	 
    7.00	    41.00	  22.562	   36.893	   75.005	   84.409	  103.422	  187.218	 
    7.50	    41.00	  21.253	   32.672	   67.561	   75.551	   93.141	  166.720	 
    8.00	    41.00	  18.028	   28.392	   58.503	   66.245	   81.984	  143.864	 
    8.50	    41.00	  15.000	   24.059	   48.556	   55.656	   71.170	  122.780	 
    9.00	    41.00	  14.034	   20.367	   42.190	   48.534	   62.942	  107.508	 
    9.50	    41.00	  13.108	   18.466	   39.115	   44.175	   56.104	   96.749	 
   10.00	    41.00	  12.318	   18.368	   38.197	   43.458	   52.991	   89.382	 
   10.50	    41.00	  12.899	   18.645	   39.335	   44.213	   53.801	   91.935	 
   11.00	    41.00	  13.865	   20.829	   42.711	   47.237	   56.552	   96.398	 
   11.50	    41.00	  14.879	   23.132	   46.095	   51.473	   59.696	  100.559	 
   12.00	    41.00	  15.381	   23.448	   48.053	   53.880	   60.969	  100.700	 
   12.50	    41.00	  15.745	   22.982	   47.835	   55.219	   62.172	   99.988	 
   13.00	    41.00	  15.534	   23.224	   48.320	   54.728	   62.161	  102.211	 
   13.50	    41.00	  14.468	   23.630	   49.985	   54.714	   64.401	  104.472	 
   14.00	    41.00	  14.596	   24.038	   51.820	   55.700	   66.751	  110.404	 
   14.50	    41.00	  15.726	   25.575	   54.757	   58.769	   69.937	  122.706	 
   15.00	    41.00	  16.539	   27.265	   57.997	   64.016	   73.981	  133.605	 
   15.50	    41.00	  17.029	   28.932	   60.538	   68.542	   77.004	  140.276	 
   16.00	    41.00	  17.084	   29.662	   60.779	   70.492	   79.813	  139.644	 
   16.50	    41.00	  17.802	   29.706	   63.314	   71.081	   82.501	  140.528	 
   17.00	    41.00	  18.768	   31.723	   67.668	   74.639	   86.728	  146.428	 
   17.50	    41.00	  20.067	   35.481	   73.589	   83.279	   95.149	  159.379	 
   18.00	    41.00	  21.481	   38.954	   77.571	   91.609	  101.610	  174.392	 
   18.50	    41.00	  23.605	   41.887	   84.093	  102.950	  117.319	  195.399	 
   19.00	    41.00	  30.204	   48.667	  103.144	  122.177	  129.720	  286.304	 
   19.50	    41.00	  49.020	   72.234	  132.926	  148.605	  139.084	  419.931	 
   20.00	    41.00	  77.500	   90.751	  152.656	  175.367	  145.830	  526.349	 
   20.50	    41.00	  55.639	   89.243	  143.429	  166.147	  177.852	  447.824	 
   21.00	    41.00	  56.144	   90.100	  127.896	  140.716	  198.251	  421.694	 
   21.50	    41.00	  46.877	   69.082	  121.890	  130.703	  204.619	  440.688	 
   22.00	    41.00	  42.940	   55.859	  109.689	  123.409	  176.509	  276.522	 
   22.50	    41.00	  33.566	   51.542	  100.159	  112.536	  152.478	  259.091	 
   23.00	    41.00	  30.040	   46.635	   90.781	  106.148	  134.009	  249.419	 
   23.50	    41.00	  26.549	   43.686	   85.553	   97.518	  125.798	  207.594	 
    0.00	    43.00	  30.312	   45.402	   87.465	   96.789	  125.552	  205.673	 
    0.50	    43.00	  29.777	   44.949	   84.844	   95.030	  125.634	  192.188	 
    1.00	    43.00	  31.134	   44.579	   88.087	   95.355	  125.572	  174.634	 
    1.50	    43.00	  32.973	   47.287	   88.218	   98.756	  129.298	  181.791	 
    2.00	    43.00	  33.583	   48.044	   92.784	  103.930	  133.106	  200.048	 
    2.50	    43.00	  31.754	   49.132	   98.366	  108.614	  137.952	  269.559	 
    3.00	    43.00	  32.182	   51.502	  101.472	  112.949	  143.908	  283.960	 
    3.50	    43.00	  32.188	   53.915	  105.677	  117.332	  146.323	  278.521	 
    4.00	    43.00	  33.855	   55.709	  110.974	  121.803	  147.506	  286.869	 
    4.50	    43.00	  34.299	   58.590	  113.480	  124.757	  147.363	  280.181	 
    5.00	    43.00	  33.464	   57.044	  108.809	  121.536	  140.670	  266.630	 
    5.50	    43.00	  29.476	   49.838	   99.052	  111.157	  131.907	  253.978	 
    6.00	    43.00	  26.932	   44.322	   89.763	  101.405	  120.656	  201.071	 
    6.50	    43.00	  25.580	   41.876	   83.009	   93.233	  111.637	  194.606	 
    7.00	    43.00	  22.884	   38.369	   76.144	   84.658	  102.343	  181.417	 
    7.50	    43.00	  21.665	   33.577	   68.507	   76.604	   92.952	  164.327	 
    8.00	    43.00	  18.249	   28.801	   59.225	   66.366	   81.940	  140.988	 
    8.50	    43.00	  15.993	   24.971	   50.626	   57.178	   72.284	  122.862	 
    9.00	    43.00	  14.667	   21.794	   43.944	   49.590	   63.876	  105.158	 
    9.50	    43.00	  13.580	   18.933	   40.309	   45.179	   57.796	   95.234	 
   10.00	    43.00	  12.551	   18.483	   38.852	   44.004	   53.914	   88.481	 
   10.50	    43.00	  13.055	   19.246	   40.226	   44.742	   54.112	   90.500	 
   11.00	    43.00	  13.983	   21.727	   43.477	   48.111	   56.331	   95.104	 
   11.50	    43.00	  14.939	   23.637	   46.865	   51.571	   59.467	   99.071	 
   12.00	    43.00	  16.008	   23.346	   48.333	   54.062	   60.469	   98.999	 
   12.50	    43.00	  16.098	   22.951	   48.188	   54.873	   62.108	   97.918	 
   13.00	    43.00	  15.974	   23.032	   49.096	   54.627	   62.562	   99.380	 
   13.50	    43.00	  14.929	   23.331	   49.839	   54.560	   63.474	  101.216	 
   14.00	    43.00	  14.687	   23.682	   51.272	   55.356	   65.622	  107.838	 
   14.50	    43.00	  15.692	   25.326	   54.198	   58.523	   68.225	  120.622	 
   15.00	    43.00	  16.464	   27.816	   58.393	   63.377	   72.379	  131.851	 
   15.50	    43.00	  17.351	   29.449	   60.417	   67.619	   75.434	  139.304	 
   16.00	    43.00	  16.619	   29.737	   60.149	   69.557	   77.425	  140.001	 
   16.50	    43.00	  16.974	   29.411	   60.944	   69.349	   80.955	  137.502	 
   17.00	    43.00	  18.333	   31.766	   66.321	   73.031	   84.765	  141.305	 
   17.50	    43.00	  19.695	   36.594	   73.837	   80.976	   95.549	  153.627	 
   18.00	    43.00	  21.221	   38.946	   78.516	   89.968	  103.503	  168.327	 
   18.50	    43.00	  24.376	   42.303	   84.403	  104.176	  117.984	  192.383	 
   19.00	    43.00	  32.442	   54.205	  107.191	  125.290	  130.396	  298.289	 
   19.50	    43.00	  47.739	   68.279	  131.736	  146.244	  140.506	  417.113	 
   20.00	    43.00	  46.474	   70.938	  144.211	  170.944	  146.423	  426.561	 
   20.50	    43.00	  52.989	   79.048	  136.208	  155.267	  178.658	  449.947	 
   21.00	    43.00	  49.787	   85.965	  127.012	  137.388	  195.596	  434.628	 
   21.50	    43.00	  46.547	   73.772	  122.942	  130.444	  206.175	  300.561	 
   22.00	    43.00	  46.063	   59.537	  116.250	  122.886	  180.181	  269.287	 
   22.50	    43.00	  34.583	   53.925	  101.562	  112.069	  152.354	  256.735	 
   23.00	    43.00	  31.337	   49.599	   93.800	  108.212	  136.977	  251.068	 
   23.50	    43.00	  29.557	   45.296	   88.282	  100.435	  130.023	  215.073	 
    0.00	    45.00	  30.956	   45.342	   89.651	  100.118	  130.576	  210.206	 
    0.50	    45.00	  28.793	   45.155	   88.331	   98.403	  128.598	  198.823	 
    1.00	    45.00	  30.603	   45.248	   90.635	   99.929	  128.408	  179.324	 
    1.50	    45.00	  32.965	   47.469	   90.723	  102.277	  131.301	  189.061	 
    2.00	    45.00	  35.138	   48.258	   92.169	  106.216	  132.807	  248.767	 
    2.50	    45.00	  32.210	   49.195	   98.394	  108.916	  139.429	  264.827	 
    3.00	    45.00	  31.811	   52.317	  102.680	  115.130	  147.006	  280.852	 
    3.50	    45.00	  32.129	   54.247	  107.998	  120.940	  151.124	  280.779	 
    4.00	    45.00	  35.109	   57.074	  114.493	  127.448	  150.482	  293.088	 
    4.50	    45.00	  38.121	   60.862	  116.358	  128.268	  149.454	  285.590	 
    5.00	    45.00	  33.822	   57.575	  110.709	  124.303	  143.532	  258.533	 
    5.50	    45.00	  29.187	   50.142	   99.300	  112.194	  134.017	  250.107	 
    6.00	    45.00	  26.417	   43.787	   89.618	  101.213	  120.848	  194.965	 
    6.50	    45.00	  25.077	   40.531	   81.715	   92.836	  110.270	  190.337	 
    7.00	    45.00	  22.785	   37.009	   74.350	   84.522	  101.973	  181.143	 
    7.50	    45.00	  21.007	   33.313	   67.474	   76.070	   91.743	  162.167	 
    8.00	    45.00	  18.446	   28.623	   58.858	   66.806	   82.611	  140.755	 
    8.50	    45.00	  16.141	   25.260	   50.926	   57.290	   73.010	  122.228	 
    9.00	    45.00	  14.660	   22.140	   44.645	   49.832	   64.279	  105.406	 
    9.50	    45.00	  13.484	   19.331	   40.549	   45.361	   58.316	   95.214	 
   10.00	    45.00	  12.747	   18.664	   38.786	   44.562	   54.198	   88.224	 
   10.50	    45.00	  13.277	   19.262	   40.051	   44.763	   54.402	   90.089	 
   11.00	    45.00	  13.808	   21.019	   42.450	   47.571	   56.836	   95.448	 
   11.50	    45.00	  15.326	   22.765	   46.375	   50.508	   58.998	   99.143	 
   12.00	    45.00	  16.508	   23.513	   48.139	   53.049	   60.690	   98.612	 
   12.50	    45.00	  16.433	   23.194	   48.710	   54.386	   61.497	   96.491	 
   13.00	    45.00	  16.026	   23.012	   49.336	   54.516	   62.193	   97.077	 
   13.50	    45.00	  15.141	   23.201	   49.623	   54.630	   62.928	   98.821	 
   14.00	    45.00	  14.846	   23.476	   49.948	   55.003	   63.901	  104.290	 
   14.50	    45.00	  15.593	   24.544	   52.392	   57.803	   66.293	  120.897	 
   15.00	    45.00	  16.346	   26.066	   55.604	   61.699	   69.404	  132.195	 
   15.50	    45.00	  16.665	   27.216	   57.062	   64.536	   72.877	  140.856	 
   16.00	    45.00	  15.945	   28.397	   58.122	   66.955	   75.959	  141.520	 
   16.50	    45.00	  16.347	   29.506	   59.108	   67.565	   78.759	  135.483	 
   17.00	    45.00	  17.923	   30.570	   62.961	   71.053	   83.271	  138.957	 
   17.50	    45.00	  20.136	   34.080	   70.756	   77.931	   93.808	  151.251	 
   18.00	    45.00	  21.479	   37.484	   78.234	   87.491	  102.769	  164.079	 
   18.50	    45.00	  24.559	   43.194	   87.985	  105.723	  118.835	  190.286	 
   19.00	    45.00	  33.758	   53.867	  106.257	  122.908	  130.852	  263.276	 
   19.50	    45.00	  40.568	   59.157	  120.796	  139.805	  141.496	  418.817	 
   20.00	    45.00	  39.994	   57.918	  125.657	  145.224	  142.244	  425.158	 
   20.50	    45.00	  48.433	   76.112	  129.819	  147.336	  175.482	  437.186	 
   21.00	    45.00	  47.725	   85.111	  125.967	  138.792	  199.454	  418.929	 
   21.50	    45.00	  46.641	   74.672	  125.620	  133.851	  206.095	  430.231	 
   22.00	    45.00	  43.721	   61.537	  118.542	  124.405	  182.298	  274.153	 
   22.50	    45.00	  34.144	   53.359	  102.404	  114.292	  154.483	  259.678	 
   23.00	    45.00	  29.919	   49.711	   93.746	  108.173	  140.881	  256.839	 
   23.50	    45.00	  30.625	   45.982	   91.974	  105.562	  133.682	  217.510	 
    0.00	    47.00	  32.109	   48.607	   93.809	  104.161	  136.511	  216.849	 
    0.50	    47.00	  28.414	   46.738	   92.482	  102.606	  135.653	  204.849	 
    1.00	    47.00	  30.250	   46.627	   91.208	  101.551	  133.306	  185.128	 
    1.50	    47.00	  31.734	   48.285	   93.083	  103.618	  134.603	  193.226	 
    2.00	    47.00	  32.637	   47.721	   92.728	  106.816	  135.641	  241.206	 
    2.50	    47.00	  32.293	   48.392	   99.326	  110.776	  140.908	  256.843	 
    3.00	    47.00	  32.271	   51.643	  104.411	  116.829	  146.573	  276.878	 
    3.50	    47.00	  33.743	   55.025	  109.639	  122.956	  151.509	  280.020	 
    4.00	    47.00	  35.825	   58.868	  116.284	  129.827	  149.668	  284.942	 
    4.50	    47.00	  37.952	   60.136	  118.674	  132.361	  150.361	  372.048	 
    5.00	    47.00	  33.015	   56.215	  110.406	  124.436	  143.852	  249.913	 
    5.50	    47.00	  29.048	   49.125	  100.178	  112.506	  134.238	  245.731	 
    6.00	    47.00	  26.439	   43.409	   89.416	  100.503	  120.215	  191.608	 
    6.50	    47.00	  24.555	   39.814	   80.538	   91.622	  109.079	  186.257	 
    7.00	    47.00	  23.327	   34.882	   73.610	   83.663	  101.068	  176.414	 
    7.50	    47.00	  20.395	   32.230	   65.868	   75.127	   92.695	  157.677	 
    8.00	    47.00	  18.496	   28.986	   60.028	   66.587	   83.637	  136.585	 
    8.50	    47.00	  16.603	   25.542	   51.929	   57.954	   73.067	  119.245	 
    9.00	    47.00	  14.280	   21.915	   45.577	   50.529	   63.967	  103.879	 
    9.50	    47.00	  13.182	   18.909	   41.019	   45.682	   58.625	   93.798	 
   10.00	    47.00	  12.529	   18.664	   39.807	   44.405	   55.192	   87.938	 
   10.50	    47.00	  12.751	   19.301	   40.421	   45.334	   54.570	   89.633	 
   11.00	    47.00	  13.876	   20.232	   42.845	   46.965	   56.761	   94.431	 
   11.50	    47.00	  14.678	   22.428	   45.907	   49.649	   58.672	   96.858	 
   12.00	    47.00	  15.643	   23.655	   47.441	   51.507	   60.200	   96.000	 
   12.50	    47.00	  15.380	   23.427	   48.417	   53.267	   61.517	   94.034	 
   13.00	    47.00	  15.553	   23.185	   48.772	   53.837	   61.908	   93.963	 
   13.50	    47.00	  15.287	   23.450	   49.005	   54.620	   61.822	   95.693	 
   14.00	    47.00	  14.962	   23.656	   49.640	   55.017	   61.791	  101.220	 
   14.50	    47.00	  15.462	   24.040	   50.717	   56.631	   64.287	  115.713	 
   15.00	    47.00	  15.471	   24.365	   52.422	   59.419	   67.515	  130.211	 
   15.50	    47.00	  15.736	   25.089	   54.072	   61.113	   70.744	  137.172	 
   16.00	    47.00	  15.732	   27.318	   56.661	   64.516	   74.040	  139.094	 
   16.50	    47.00	  16.027	   28.998	   58.510	   66.449	   76.170	  134.276	 
   17.00	    47.00	  16.963	   29.763	   60.409	   69.910	   80.991	  136.926	 
   17.50	    47.00	  19.246	   32.368	   68.049	   76.148	   92.593	  148.693	 
   18.00	    47.00	  20.734	   36.969	   77.667	   87.646	  103.316	  161.400	 
   18.50	    47.00	  23.062	   43.720	   89.992	  104.399	  117.943	  186.642	 
   19.00	    47.00	  30.492	   50.658	  105.179	  120.962	  128.616	  253.925	 
   19.50	    47.00	  35.986	   53.851	  112.228	  130.915	  134.425	  339.151	 
   20.00	    47.00	  38.359	   55.542	  113.581	  135.650	  140.977	  439.656	 
   20.50	    47.00	  44.743	   69.734	  125.299	  147.865	  173.957	  441.183	 
   21.00	    47.00	  51.783	   91.061	  132.850	  146.166	  197.041	  418.778	 
   21.50	    47.00	  49.277	   75.888	  129.970	  142.883	  212.487	  419.285	 
   22.00	    47.00	  42.408	   63.851	  119.513	  129.713	  185.693	  274.262	 
   22.50	    47.00	  34.091	   53.729	  106.382	  118.788	  158.564	  266.662	 
   23.00	    47.00	  30.370	   48.907	   95.487	  112.252	  144.010	  260.654	 
   23.50	    47.00	  32.258	   47.370	   93.921	  107.496	  136.843	  252.537	 
    0.00	    49.00	  33.426	   48.419	   96.158	  107.723	  141.752	  251.628	 
    0.50	    49.00	  29.905	   48.470	   93.069	  105.550	  145.257	  214.261	 
    1.00	    49.00	  32.076	   48.777	   95.100	  102.577	  143.346	  197.306	 
    1.50	    49.00	  33.059	   50.865	   94.219	  105.080	  142.108	  202.008	 
    2.00	    49.00	  32.823	   50.368	   94.426	  107.989	  140.801	  248.522	 
    2.50	    49.00	  32.949	   49.978	  101.216	  112.072	  143.225	  254.105	 
    3.00	    49.00	  33.218	   53.132	  106.427	  116.952	  149.166	  275.763	 
    3.50	    49.00	  36.721	   57.707	  111.794	  123.112	  154.332	  275.020	 
    4.00	    49.00	  37.405	   59.582	  117.939	  130.392	  151.031	  277.309	 
    4.50	    49.00	  37.907	   58.219	  118.229	  130.079	  148.995	  270.537	 
    5.00	    49.00	  31.998	   55.892	  109.786	  123.036	  141.847	  242.382	 
    5.50	    49.00	  28.603	   49.022	   99.885	  109.946	  132.856	  239.661	 
    6.00	    49.00	  27.384	   43.716	   88.753	  100.381	  120.631	  191.324	 
    6.50	    49.00	  24.941	   40.258	   80.049	   89.860	  109.188	  185.051	 
    7.00	    49.00	  23.532	   35.308	   72.887	   82.388	  101.708	  173.891	 
    7.50	    49.00	  21.108	   32.123	   66.544	   75.320	   93.868	  154.474	 
    8.00	    49.00	  19.153	   28.901	   59.777	   67.414	   84.293	  135.180	 
    8.50	    49.00	  17.438	   25.768	   52.520	   58.522	   74.240	  118.861	 
    9.00	    49.00	  14.630	   22.157	   45.775	   50.927	   65.581	  104.369	 
    9.50	    49.00	  13.557	   18.980	   41.477	   46.290	   60.170	   94.645	 
   10.00	    49.00	  12.827	   18.551	   40.234	   44.971	   56.207	   89.649	 
   10.50	    49.00	  13.319	   18.970	   40.901	   45.094	   55.084	   91.042	 
   11.00	    49.00	  13.760	   20.555	   42.340	   46.625	   57.227	   96.068	 
   11.50	    49.00	  14.611	   22.684	   45.330	   48.536	   59.001	   97.240	 
   12.00	    49.00	  15.494	   23.589	   47.487	   50.661	   60.312	   96.582	 
   12.50	    49.00	  15.661	   23.345	   48.092	   52.884	   60.348	   93.141	 
   13.00	    49.00	  15.376	   23.193	   48.112	   53.429	   60.629	   92.174	 
   13.50	    49.00	  15.029	   23.552	   48.172	   54.204	   60.639	   94.971	 
   14.00	    49.00	  15.191	   23.451	   49.043	   54.957	   61.194	   99.956	 
   14.50	    49.00	  15.729	   23.642	   49.187	   55.877	   62.653	  112.234	 
   15.00	    49.00	  15.935	   23.545	   50.487	   57.445	   65.752	  126.278	 
   15.50	    49.00	  16.092	   24.333	   52.912	   59.195	   69.431	  133.999	 
   16.00	    49.00	  15.781	   27.134	   55.986	   62.158	   73.020	  137.651	 
   16.50	    49.00	  15.717	   28.993	   59.130	   65.680	   75.516	  134.975	 
   17.00	    49.00	  17.241	   29.281	   59.088	   69.663	   79.035	  136.768	 
   17.50	    49.00	  19.537	   31.539	   66.230	   74.479	   88.786	  147.429	 
   18.00	    49.00	  21.351	   36.549	   79.579	   86.015	  100.685	  161.712	 
   18.50	    49.00	  24.327	   44.523	   90.370	  101.855	  115.484	  187.814	 
   19.00	    49.00	  29.391	   49.763	  101.595	  116.383	  125.905	  251.026	 
   19.50	    49.00	  35.242	   51.730	  103.494	  124.204	  131.881	  268.406	 
   20.00	    49.00	  38.114	   57.785	  112.194	  133.734	  139.412	  438.833	 
   20.50	    49.00	  44.675	   72.644	  125.260	  152.276	  178.842	  435.057	 
   21.00	    49.00	  54.501	   95.428	  142.642	  157.734	  211.418	  426.339	 
   21.50	    49.00	  53.222	   82.767	  141.067	  152.683	  223.867	  408.686	 
   22.00	    49.00	  43.629	   69.043	  128.435	  137.163	  196.067	  378.679	 
   22.50	    49.00	  33.776	   56.010	  107.423	  120.749	  165.812	  271.109	 
   23.00	    49.00	  31.352	   50.914	   99.488	  115.968	  149.326	  269.426	 
   23.50	    49.00	  32.434	   48.986	   96.993	  111.922	  143.937	  259.416	 
    0.00	    51.00	  33.550	   50.607	  102.282	  117.956	  154.724	  257.792	 
    0.50	    51.00	  32.412	   51.748	  100.372	  114.529	  157.766	  262.444	 
    1.00	    51.00	  34.638	   52.842	   99.753	  111.768	  157.584	  238.948	 
    1.50	    51.00	  34.586	   53.165	   97.591	  111.218	  154.210	  243.091	 
    2.00	    51.00	  34.211	   53.015	   99.368	  113.297	  149.347	  255.499	 
    2.50	    51.00	  32.669	   52.629	  104.542	  116.586	  150.940	  257.117	 
    3.00	    51.00	  35.589	   54.939	  108.894	  120.629	  154.133	  273.001	 
    3.50	    51.00	  38.957	   58.748	  112.652	  125.231	  157.808	  277.770	 
    4.00	    51.00	  38.175	   58.628	  118.041	  127.732	  153.105	  270.209	 
    4.50	    51.00	  37.551	   56.869	  114.027	  125.965	  148.272	  265.011	 
    5.00	    51.00	  31.307	   53.767	  107.649	  120.677	  141.435	  236.546	 
    5.50	    51.00	  28.715	   48.400	   98.824	  110.060	  132.724	  230.844	 
    6.00	    51.00	  27.385	   43.545	   88.716	  100.665	  121.016	  189.149	 
    6.50	    51.00	  24.822	   39.887	   80.717	   91.276	  110.520	  183.715	 
    7.00	    51.00	  23.188	   35.564	   73.375	   83.533	  103.064	  172.200	 
    7.50	    51.00	  21.118	   32.351	   67.029	   76.305	   94.714	  153.036	 
    8.00	    51.00	  18.921	   29.345	   60.766	   68.558	   85.551	  133.490	 
    8.50	    51.00	  17.532	   26.018	   53.531	   60.422	   75.748	  118.388	 
    9.00	    51.00	  15.424	   23.263	   46.813	   53.073	   67.978	  105.311	 
    9.50	    51.00	  14.247	   20.623	   43.300	   48.043	   62.796	   96.182	 
   10.00	    51.00	  13.261	   19.421	   41.664	   46.121	   58.672	   90.749	 
   10.50	    51.00	  13.485	   19.408	   41.359	   45.807	   57.247	   92.345	 
   11.00	    51.00	  13.963	   21.363	   42.881	   47.304	   58.504	   97.129	 
   11.50	    51.00	  14.218	   23.021	   45.591	   49.115	   59.168	   97.276	 
   12.00	    51.00	  14.907	   23.359	   46.899	   50.594	   59.909	   95.318	 
   12.50	    51.00	  15.308	   23.261	   47.449	   52.644	   59.513	   92.211	 
   13.00	    51.00	  15.108	   23.220	   47.134	   53.154	   59.567	   90.890	 
   13.50	    51.00	  14.915	   23.320	   47.473	   53.518	   60.106	   94.334	 
   14.00	    51.00	  14.942	   23.130	   48.149	   54.506	   61.391	   98.487	 
   14.50	    51.00	  15.301	   23.105	   48.932	   55.619	   63.712	  109.613	 
   15.00	    51.00	  15.816	   24.126	   51.330	   57.198	   66.499	  122.277	 
   15.50	    51.00	  16.229	   25.331	   54.103	   59.342	   69.528	  131.627	 
   16.00	    51.00	  16.159	   27.616	   56.680	   62.240	   72.584	  136.130	 
   16.50	    51.00	  16.249	   29.038	   58.786	   65.645	   74.839	  133.743	 
   17.00	    51.00	  17.205	   29.204	   58.827	   68.872	   78.653	  136.704	 
   17.50	    51.00	  19.454	   30.227	   64.583	   73.395	   85.426	  145.168	 
   18.00	    51.00	  20.748	   34.932	   75.646	   85.726	   97.295	  159.943	 
   18.50	    51.00	  24.571	   42.259	   86.165	   99.254	  114.172	  183.831	 
   19.00	    51.00	  29.312	   48.282	   96.702	  109.942	  123.455	  247.048	 
   19.50	    51.00	  34.429	   52.317	  103.351	  121.224	  131.680	  267.726	 
   20.00	    51.00	  37.099	   59.862	  111.885	  136.424	  142.233	  431.720	 
   20.50	    51.00	  46.198	   76.539	  132.520	  156.029	  184.554	  425.909	 
   21.00	    51.00	  54.799	   97.468	  154.333	  163.813	  224.561	  540.125	 
   21.50	    51.00	  57.496	   89.931	  159.865	  164.159	  242.935	  511.946	 
   22.00	    51.00	  48.652	   73.894	  141.735	  147.082	  212.080	  369.368	 
   22.50	    51.00	  37.632	   62.295	  112.720	  130.193	  180.165	  279.484	 
   23.00	    51.00	  32.519	   56.421	  107.202	  122.919	  160.967	  274.832	 
   23.50	    51.00	  31.173	   52.106	  104.334	  120.312	  155.883	  272.796	 
    0.00	    53.00	  37.882	   61.999	  116.241	  133.457	  176.873	  360.994	 
    0.50	    53.00	  36.207	   61.530	  116.573	  130.158	  173.206	  272.090	 
    1.00	    53.00	  34.277	   57.327	  108.622	  123.062	  172.843	  248.185	 
    1.50	    53.00	  35.991	   54.138	  103.490	  118.761	  166.806	  248.829	 
    2.00	    53.00	  37.042	   55.866	  104.538	  118.459	  160.018	  261.871	 
    2.50	    53.00	  34.654	   57.485	  107.740	  120.571	  157.351	  261.288	 
    3.00	    53.00	  36.470	   57.736	  111.700	  123.432	  158.542	  275.874	 
    3.50	    53.00	  39.032	   58.503	  113.804	  125.021	  159.032	  276.189	 
    4.00	    53.00	  37.743	   57.066	  113.613	  123.624	  153.853	  261.812	 
    4.50	    53.00	  36.815	   55.761	  108.535	  121.338	  147.509	  249.109	 
    5.00	    53.00	  30.291	   52.438	  103.639	  117.385	  139.398	  233.155	 
    5.50	    53.00	  29.219	   48.006	   97.142	  109.074	  131.098	  221.388	 
    6.00	    53.00	  27.120	   43.729	   88.805	  100.600	  121.098	  186.022	 
    6.50	    53.00	  24.494	   40.413	   81.281	   92.035	  110.616	  182.388	 
    7.00	    53.00	  23.005	   35.666	   73.910	   83.648	  103.063	  170.575	 
    7.50	    53.00	  20.882	   33.070	   67.388	   76.580	   95.629	  153.611	 
    8.00	    53.00	  18.771	   30.584	   61.141	   69.279	   86.981	  133.203	 
    8.50	    53.00	  17.395	   26.893	   53.853	   61.599	   77.090	  117.446	 
    9.00	    53.00	  15.771	   24.552	   48.133	   54.756	   70.068	  106.420	 
    9.50	    53.00	  14.377	   22.833	   44.701	   50.236	   64.839	   98.719	 
   10.00	    53.00	  13.454	   21.308	   42.916	   47.544	   61.107	   94.119	 
   10.50	    53.00	  12.869	   20.852	   42.155	   46.745	   59.409	   95.220	 
   11.00	    53.00	  13.544	   22.450	   42.921	   47.758	   59.360	   98.530	 
   11.50	    53.00	  13.706	   23.735	   45.350	   49.285	   59.391	   97.542	 
   12.00	    53.00	  14.283	   23.602	   46.434	   49.972	   59.322	   95.102	 
   12.50	    53.00	  14.623	   23.268	   46.859	   51.239	   59.427	   91.922	 
   13.00	    53.00	  14.615	   23.199	   47.184	   52.204	   59.554	   90.942	 
   13.50	    53.00	  14.600	   23.127	   47.115	   52.561	   59.707	   94.137	 
   14.00	    53.00	  14.640	   23.025	   47.824	   53.765	   61.580	   99.680	 
   14.50	    53.00	  15.351	   23.376	   48.775	   55.286	   63.960	  109.264	 
   15.00	    53.00	  15.635	   24.896	   51.566	   57.142	   66.839	  120.508	 
   15.50	    53.00	  15.969	   26.426	   53.556	   58.793	   70.433	  130.251	 
   16.00	    53.00	  15.824	   28.021	   56.683	   61.434	   73.156	  133.499	 
   16.50	    53.00	  16.024	   29.197	   58.048	   64.366	   74.172	  133.099	 
   17.00	    53.00	  16.561	   29.095	   58.020	   67.665	   77.700	  135.046	 
   17.50	    53.00	  19.054	   29.548	   63.504	   70.867	   85.269	  143.133	 
   18.00	    53.00	  20.259	   33.895	   71.904	   81.976	   95.425	  156.778	 
   18.50	    53.00	  23.417	   41.056	   82.465	   94.748	  109.455	  184.230	 
   19.00	    53.00	  28.979	   47.068	   92.655	  105.904	  123.187	  208.110	 
   19.50	    53.00	  32.984	   52.947	  101.917	  118.475	  131.995	  259.819	 
   20.00	    53.00	  36.050	   59.838	  110.578	  137.317	  139.358	  430.248	 
   20.50	    53.00	  43.900	   74.151	  132.484	  159.091	  180.934	  415.878	 
   21.00	    53.00	  54.094	   90.033	  153.278	  164.574	  221.561	  539.577	 
   21.50	    53.00	  58.593	   88.787	  162.445	  168.333	  249.775	  511.393	 
   22.00	    53.00	  49.462	   78.128	  148.607	  157.077	  220.503	  359.479	 
   22.50	    53.00	  42.265	   67.498	  122.114	  141.786	  193.381	  355.501	 
   23.00	    53.00	  36.746	   64.982	  117.663	  138.990	  179.245	  352.410	 
   23.50	    53.00	  34.710	   59.124	  118.363	  133.776	  174.428	  361.368	 
    0.00	    55.00	  54.133	   84.102	  143.905	  162.661	  203.176	  372.187	 
    0.50	    55.00	  43.061	   73.331	  136.472	  154.380	  191.668	  364.835	 
    1.00	    55.00	  35.735	   63.191	  120.414	  137.845	  183.244	  345.861	 
    1.50	    55.00	  38.820	   58.719	  109.882	  127.549	  176.912	  255.680	 
    2.00	    55.00	  39.003	   61.303	  109.303	  125.957	  169.977	  263.645	 
    2.50	    55.00	  39.050	   60.799	  113.836	  127.122	  167.415	  266.509	 
    3.00	    55.00	  38.479	   61.234	  116.589	  128.062	  164.279	  282.157	 
    3.50	    55.00	  38.729	   60.121	  116.097	  128.104	  160.789	  278.461	 
    4.00	    55.00	  35.800	   57.101	  111.670	  125.098	  154.144	  270.405	 
    4.50	    55.00	  32.643	   54.826	  105.535	  120.137	  147.187	  242.985	 
    5.00	    55.00	  29.767	   51.053	  100.090	  114.558	  137.827	  222.454	 
    5.50	    55.00	  28.933	   47.699	   96.378	  108.694	  130.658	  215.276	 
    6.00	    55.00	  26.711	   43.554	   88.814	  101.295	  120.539	  187.742	 
    6.50	    55.00	  24.181	   40.451	   82.520	   92.987	  110.935	  180.726	 
    7.00	    55.00	  22.346	   35.863	   74.477	   84.354	  103.142	  170.988	 
    7.50	    55.00	  21.304	   33.019	   68.112	   77.206	   94.625	  153.834	 
    8.00	    55.00	  18.890	   31.474	   62.153	   70.084	   86.639	  133.872	 
    8.50	    55.00	  17.625	   27.868	   55.018	   62.785	   79.172	  119.252	 
    9.00	    55.00	  16.234	   24.888	   48.953	   56.604	   73.016	  107.881	 
    9.50	    55.00	  14.219	   23.366	   46.306	   52.501	   66.742	  101.069	 
   10.00	    55.00	  13.567	   22.546	   44.445	   49.299	   62.930	   97.633	 
   10.50	    55.00	  13.343	   21.992	   43.391	   48.110	   60.594	   98.410	 
   11.00	    55.00	  13.877	   22.923	   44.229	   48.401	   60.366	  100.225	 
   11.50	    55.00	  14.023	   23.546	   45.617	   49.502	   60.008	   98.922	 
   12.00	    55.00	  14.045	   23.486	   46.323	   49.889	   58.985	   96.457	 
   12.50	    55.00	  14.421	   23.287	   46.644	   50.367	   58.964	   92.686	 
   13.00	    55.00	  14.850	   23.041	   47.158	   51.516	   58.865	   92.119	 
   13.50	    55.00	  14.639	   22.940	   47.184	   52.314	   60.023	   94.929	 
   14.00	    55.00	  14.824	   22.873	   47.496	   53.676	   61.807	  100.912	 
   14.50	    55.00	  15.131	   23.215	   48.992	   55.435	   64.683	  110.800	 
   15.00	    55.00	  15.161	   24.899	   52.666	   57.797	   68.233	  119.954	 
   15.50	    55.00	  15.901	   26.218	   55.065	   60.021	   70.703	  129.112	 
   16.00	    55.00	  15.798	   27.582	   57.125	   61.829	   73.639	  132.232	 
   16.50	    55.00	  15.824	   28.711	   57.899	   64.308	   74.786	  133.418	 
   17.00	    55.00	  16.858	   29.010	   58.214	   66.999	   78.823	  137.383	 
   17.50	    55.00	  18.611	   31.434	   64.242	   72.821	   87.010	  143.168	 
   18.00	    55.00	  21.873	   35.974	   72.261	   82.938	   96.098	  157.495	 
   18.50	    55.00	  24.934	   42.557	   82.333	   95.438	  110.210	  184.625	 
   19.00	    55.00	  29.751	   47.379	   93.868	  106.739	  124.414	  241.435	 
   19.50	    55.00	  32.414	   51.819	  102.828	  119.966	  133.152	  252.984	 
   20.00	    55.00	  35.065	   58.441	  107.958	  140.126	  138.058	  422.130	 
   20.50	    55.00	  41.202	   69.329	  126.380	  153.229	  169.977	  417.502	 
   21.00	    55.00	  51.673	   76.679	  143.781	  162.076	  212.896	  386.958	 
   21.50	    55.00	  54.360	   79.691	  156.082	  165.982	  241.859	  521.718	 
   22.00	    55.00	  51.282	   79.389	  149.197	  165.704	  224.904	  486.345	 
   22.50	    55.00	  44.327	   72.105	  131.273	  160.614	  210.512	  365.117	 
   23.00	    55.00	  41.860	   74.063	  130.715	  168.277	  206.013	  372.425	 
   23.50	    55.00	  49.115	   78.715	  148.279	  170.450	  202.707	  497.030	 
    0.00	    57.00	  64.432	   99.923	  172.509	  188.893	  219.925	  515.171	 
    0.50	    57.00	  47.387	   78.817	  141.180	  165.107	  202.960	  487.589	 
    1.00	    57.00	  40.034	   67.359	  123.865	  142.256	  190.326	  346.518	 
    1.50	    57.00	  42.939	   65.185	  115.860	  134.077	  183.350	  350.759	 
    2.00	    57.00	  43.680	   65.299	  116.551	  133.813	  177.554	  351.142	 
    2.50	    57.00	  41.266	   62.683	  121.021	  134.955	  174.239	  354.358	 
    3.00	    57.00	  41.634	   62.266	  121.622	  134.034	  165.656	  372.324	 
    3.50	    57.00	  40.342	   60.642	  118.109	  131.377	  160.637	  371.265	 
    4.00	    57.00	  36.665	   56.983	  111.088	  126.576	  152.818	  267.811	 
    4.50	    57.00	  33.999	   54.477	  103.639	  119.664	  146.001	  240.749	 
    5.00	    57.00	  29.840	   52.338	  100.148	  114.131	  135.946	  215.477	 
    5.50	    57.00	  28.921	   47.819	   94.697	  107.311	  129.037	  207.771	 
    6.00	    57.00	  27.619	   43.294	   88.795	   99.813	  119.148	  185.489	 
    6.50	    57.00	  25.650	   40.718	   82.658	   91.465	  109.627	  180.772	 
    7.00	    57.00	  23.303	   36.447	   75.254	   83.832	  103.200	  171.203	 
    7.50	    57.00	  22.226	   32.863	   68.383	   76.852	   95.380	  154.201	 
    8.00	    57.00	  19.757	   32.049	   63.427	   71.032	   87.497	  135.508	 
    8.50	    57.00	  18.785	   30.080	   57.364	   63.968	   80.113	  120.942	 
    9.00	    57.00	  17.150	   26.276	   51.028	   58.347	   74.676	  110.058	 
    9.50	    57.00	  15.167	   23.763	   46.894	   53.801	   68.621	  103.564	 
   10.00	    57.00	  14.480	   23.472	   45.449	   51.249	   63.555	  101.406	 
   10.50	    57.00	  14.186	   23.430	   44.978	   50.006	   61.416	  101.496	 
   11.00	    57.00	  14.515	   23.452	   45.223	   49.803	   60.592	  104.204	 
   11.50	    57.00	  14.307	   23.338	   46.005	   50.168	   60.323	  102.357	 
   12.00	    57.00	  14.188	   23.302	   46.469	   50.081	   59.462	   98.413	 
   12.50	    57.00	  14.482	   23.117	   46.657	   50.444	   59.493	   93.616	 
   13.00	    57.00	  14.679	   22.825	   46.615	   51.836	   59.871	   93.663	 
   13.50	    57.00	  14.576	   22.891	   46.840	   52.590	   60.673	   96.589	 
   14.00	    57.00	  14.679	   22.982	   47.226	   53.846	   62.534	  102.291	 
   14.50	    57.00	  14.708	   24.050	   49.093	   55.403	   65.942	  112.782	 
   15.00	    57.00	  15.325	   26.275	   53.069	   57.902	   69.056	  120.498	 
   15.50	    57.00	  15.780	   27.468	   56.695	   60.706	   72.301	  131.026	 
   16.00	    57.00	  16.045	   28.654	   58.451	   63.445	   74.431	  130.819	 
   16.50	    57.00	  16.444	   29.274	   58.466	   65.890	   76.015	  131.865	 
   17.00	    57.00	  17.753	   30.304	   59.398	   68.212	   81.124	  137.378	 
   17.50	    57.00	  19.358	   34.639	   65.934	   75.576	   89.330	  144.335	 
   18.00	    57.00	  23.626	   39.955	   76.377	   86.081	  102.280	  163.851	 
   18.50	    57.00	  26.185	   45.309	   85.492	   97.790	  114.636	  185.995	 
   19.00	    57.00	  31.092	   49.492	   97.286	  108.967	  124.431	  236.856	 
   19.50	    57.00	  30.904	   51.180	  102.987	  118.413	  131.984	  247.728	 
   20.00	    57.00	  32.749	   55.375	  106.433	  136.051	  134.974	  316.496	 
   20.50	    57.00	  37.974	   66.410	  117.931	  144.780	  163.768	  395.347	 
   21.00	    57.00	  47.370	   72.872	  131.058	  150.540	  197.434	  371.853	 
   21.50	    57.00	  50.241	   74.803	  140.825	  157.059	  227.960	  356.150	 
   22.00	    57.00	  52.452	   76.451	  141.789	  164.828	  223.560	  371.234	 
   22.50	    57.00	  51.872	   79.562	  154.978	  176.310	  222.681	  366.042	 
   23.00	    57.00	  58.200	  107.812	  176.152	  206.219	  217.830	  504.724	 
   23.50	    57.00	  75.653	  124.740	  190.138	  219.099	  231.524	  512.860	 
    0.00	    59.00	  61.498	   93.684	  171.991	  192.957	  218.291	  527.285	 
    0.50	    59.00	  49.134	   72.318	  138.952	  162.070	  206.927	  368.581	 
    1.00	    59.00	  42.935	   68.347	  126.055	  144.607	  194.374	  348.910	 
    1.50	    59.00	  46.348	   67.581	  122.088	  141.250	  187.073	  356.392	 
    2.00	    59.00	  46.009	   67.395	  122.292	  141.832	  182.735	  352.554	 
    2.50	    59.00	  41.739	   64.389	  125.415	  141.150	  179.568	  350.527	 
    3.00	    59.00	  41.790	   63.210	  123.706	  139.002	  168.474	  363.943	 
    3.50	    59.00	  40.268	   61.432	  120.181	  134.387	  163.037	  365.223	 
    4.00	    59.00	  36.986	   56.517	  111.435	  127.940	  152.528	  262.854	 
    4.50	    59.00	  36.160	   55.069	  103.317	  120.470	  144.763	  232.503	 
    5.00	    59.00	  30.745	   53.126	   98.984	  113.896	  136.990	  209.790	 
    5.50	    59.00	  28.455	   49.754	   94.635	  105.684	  127.129	  187.746	 
    6.00	    59.00	  26.829	   43.343	   88.404	   98.908	  118.548	  185.056	 
    6.50	    59.00	  26.896	   40.632	   83.372	   91.590	  110.231	  178.194	 
    7.00	    59.00	  23.502	   37.329	   76.640	   84.685	  103.441	  170.809	 
    7.50	    59.00	  22.366	   33.185	   69.853	   77.847	   95.985	  154.706	 
    8.00	    59.00	  20.585	   31.778	   64.008	   72.299	   87.701	  135.339	 
    8.50	    59.00	  19.521	   31.031	   60.123	   66.653	   82.056	  121.203	 
    9.00	    59.00	  17.716	   28.252	   53.979	   60.623	   75.983	  111.837	 
    9.50	    59.00	  15.729	   24.410	   48.407	   55.838	   70.207	  105.135	 
   10.00	    59.00	  15.306	   23.327	   46.326	   53.356	   64.859	  105.068	 
   10.50	    59.00	  15.215	   23.442	   45.984	   52.328	   62.190	  106.090	 
   11.00	    59.00	  15.057	   23.453	   46.261	   52.040	   61.120	  107.707	 
   11.50	    59.00	  14.760	   23.071	   46.494	   51.818	   60.707	  103.796	 
   12.00	    59.00	  14.335	   22.762	   46.502	   51.831	   59.679	   99.184	 
   12.50	    59.00	  14.789	   22.656	   46.241	   52.121	   60.222	   95.074	 
   13.00	    59.00	  14.727	   22.553	   46.208	   53.120	   60.613	   95.302	 
   13.50	    59.00	  14.492	   22.908	   46.632	   53.580	   61.747	   98.031	 
   14.00	    59.00	  14.835	   24.023	   47.888	   55.006	   64.468	  103.538	 
   14.50	    59.00	  15.435	   26.088	   51.016	   56.468	   67.762	  114.106	 
   15.00	    59.00	  16.476	   27.820	   56.312	   59.796	   71.500	  122.326	 
   15.50	    59.00	  16.966	   28.559	   60.339	   63.763	   73.656	  130.430	 
   16.00	    59.00	  17.232	   28.993	   60.931	   66.201	   74.971	  132.265	 
   16.50	    59.00	  17.976	   29.666	   60.009	   68.245	   78.646	  133.750	 
   17.00	    59.00	  18.623	   32.223	   62.100	   71.868	   84.205	  141.542	 
   17.50	    59.00	  21.297	   36.497	   69.477	   79.236	   94.240	  150.319	 
   18.00	    59.00	  24.800	   42.829	   79.459	   90.928	  104.891	  161.525	 
   18.50	    59.00	  27.648	   46.902	   88.955	  100.833	  115.903	  192.864	 
   19.00	    59.00	  31.019	   49.243	   99.182	  111.191	  124.756	  235.979	 
   19.50	    59.00	  29.346	   49.142	  103.853	  116.623	  127.921	  245.224	 
   20.00	    59.00	  32.268	   51.189	  106.882	  122.754	  130.945	  234.810	 
   20.50	    59.00	  35.529	   59.313	  114.726	  132.328	  155.186	  305.400	 
   21.00	    59.00	  41.462	   66.054	  124.598	  136.742	  187.284	  368.209	 
   21.50	    59.00	  48.906	   69.689	  133.814	  147.705	  218.236	  339.863	 
   22.00	    59.00	  47.798	   71.952	  142.421	  156.288	  218.593	  363.545	 
   22.50	    59.00	  57.068	   91.031	  165.050	  185.927	  221.193	  516.294	 
   23.00	    59.00	  92.561	  122.456	  204.698	  224.031	  225.988	  523.205	 
   23.50	    59.00	  89.582	  119.783	  210.212	  229.791	  231.186	  531.928	 
    0.00	    61.00	  52.135	   87.627	  158.943	  177.039	  210.847	  524.216	 
    0.50	    61.00	  46.182	   76.207	  133.931	  151.065	  201.402	  360.613	 
    1.00	    61.00	  44.360	   68.575	  126.770	  142.896	  193.444	  344.137	 
    1.50	    61.00	  45.085	   68.297	  124.453	  143.524	  189.241	  356.256	 
    2.00	    61.00	  45.587	   67.283	  124.744	  144.791	  183.863	  348.839	 
    2.50	    61.00	  40.720	   64.237	  123.351	  141.735	  182.067	  348.827	 
    3.00	    61.00	  40.593	   62.676	  121.476	  134.809	  170.829	  353.769	 
    3.50	    61.00	  38.494	   60.609	  117.067	  130.690	  161.242	  270.688	 
    4.00	    61.00	  34.833	   55.746	  109.129	  123.958	  151.805	  246.670	 
    4.50	    61.00	  36.522	   53.723	  101.044	  117.509	  141.611	  223.788	 
    5.00	    61.00	  31.446	   52.396	   96.936	  111.085	  134.846	  206.198	 
    5.50	    61.00	  27.962	   48.508	   91.403	  102.579	  123.788	  185.382	 
    6.00	    61.00	  26.964	   43.163	   85.667	   96.261	  116.615	  180.713	 
    6.50	    61.00	  25.755	   39.932	   83.040	   90.171	  109.441	  178.696	 
    7.00	    61.00	  22.789	   37.036	   76.249	   84.240	  102.929	  171.596	 
    7.50	    61.00	  22.047	   33.368	   69.445	   77.722	   94.773	  155.063	 
    8.00	    61.00	  21.107	   31.732	   62.865	   72.075	   86.963	  136.945	 
    8.50	    61.00	  19.371	   30.328	   60.190	   67.139	   82.946	  121.800	 
    9.00	    61.00	  17.469	   28.428	   55.065	   61.769	   77.173	  113.102	 
    9.50	    61.00	  15.923	   25.106	   49.341	   57.062	   71.187	  107.601	 
   10.00	    61.00	  15.785	   23.591	   46.829	   54.911	   66.159	  107.464	 
   10.50	    61.00	  16.010	   23.409	   46.590	   54.060	   63.093	  109.372	 
   11.00	    61.00	  15.689	   23.493	   46.851	   53.717	   61.838	  109.878	 
   11.50	    61.00	  15.061	   23.165	   46.982	   53.702	   61.396	  106.985	 
   12.00	    61.00	  14.514	   22.851	   46.944	   53.264	   60.531	  101.053	 
   12.50	    61.00	  14.999	   22.618	   46.626	   53.673	   61.039	   96.330	 
   13.00	    61.00	  15.163	   22.556	   46.617	   54.019	   61.566	   96.518	 
   13.50	    61.00	  14.952	   23.202	   47.080	   54.118	   63.163	   98.911	 
   14.00	    61.00	  15.050	   25.436	   48.945	   55.263	   66.004	  104.702	 
   14.50	    61.00	  15.772	   27.927	   52.691	   56.898	   69.700	  113.973	 
   15.00	    61.00	  17.016	   28.609	   58.318	   60.854	   72.850	  123.120	 
   15.50	    61.00	  18.009	   28.347	   61.787	   65.372	   74.380	  129.877	 
   16.00	    61.00	  18.406	   28.617	   62.310	   68.135	   76.260	  132.330	 
   16.50	    61.00	  19.446	   30.646	   62.623	   70.770	   80.748	  135.176	 
   17.00	    61.00	  19.338	   34.037	   65.529	   74.069	   86.773	  143.842	 
   17.50	    61.00	  22.646	   37.961	   72.655	   84.072	   97.083	  153.028	 
   18.00	    61.00	  25.492	   43.240	   79.475	   91.934	  104.625	  163.656	 
   18.50	    61.00	  28.280	   46.285	   87.546	  101.096	  115.552	  189.822	 
   19.00	    61.00	  30.593	   47.954	   94.563	  107.564	  120.525	  232.400	 
   19.50	    61.00	  28.428	   46.651	  101.054	  110.434	  127.073	  241.490	 
   20.00	    61.00	  30.499	   50.515	  106.959	  116.365	  128.408	  231.725	 
   20.50	    61.00	  34.906	   56.572	  112.463	  121.202	  148.033	  241.870	 
   21.00	    61.00	  39.637	   65.026	  117.680	  126.999	  180.876	  290.469	 
   21.50	    61.00	  48.580	   66.134	  125.982	  137.305	  208.841	  319.187	 
   22.00	    61.00	  51.083	   73.950	  139.802	  151.132	  211.255	  374.941	 
   22.50	    61.00	  67.462	   94.173	  161.869	  177.000	  213.769	  530.306	 
   23.00	    61.00	  66.354	   95.863	  184.876	  196.210	  206.824	  533.080	 
   23.50	    61.00	  56.250	   89.069	  180.619	  199.189	  205.738	  540.244	 
    0.00	    63.00	  43.967	   75.774	  143.330	  157.617	  193.795	  357.310	 
    0.50	    63.00	  43.213	   77.289	  136.521	  153.849	  193.657	  347.767	 
    1.00	    63.00	  43.092	   69.485	  129.208	  148.545	  193.702	  341.325	 
    1.50	    63.00	  40.972	   69.612	  125.539	  146.036	  191.191	  344.486	 
    2.00	    63.00	  43.129	   68.479	  123.597	  144.190	  184.573	  347.052	 
    2.50	    63.00	  39.564	   63.502	  121.699	  138.582	  182.168	  343.226	 
    3.00	    63.00	  37.749	   60.965	  117.797	  130.521	  171.452	  337.925	 
    3.50	    63.00	  35.459	   57.680	  112.304	  127.044	  160.228	  263.846	 
    4.00	    63.00	  33.011	   53.932	  104.684	  120.010	  150.142	  238.710	 
    4.50	    63.00	  31.521	   52.915	   97.619	  114.228	  137.442	  219.960	 
    5.00	    63.00	  28.740	   49.730	   93.229	  107.908	  131.525	  205.246	 
    5.50	    63.00	  27.012	   46.457	   87.307	  101.342	  122.836	  182.807	 
    6.00	    63.00	  25.941	   41.832	   82.158	   94.089	  114.487	  178.678	 
    6.50	    63.00	  23.619	   38.695	   79.465	   88.915	  108.039	  177.230	 
    7.00	    63.00	  21.063	   35.362	   74.920	   83.266	  102.312	  167.809	 
    7.50	    63.00	  21.850	   32.701	   67.600	   76.734	   95.890	  152.693	 
    8.00	    63.00	  19.791	   31.415	   61.896	   71.121	   87.199	  135.421	 
    8.50	    63.00	  18.344	   29.941	   59.162	   67.149	   83.371	  122.868	 
    9.00	    63.00	  17.007	   28.298	   55.842	   62.181	   78.462	  114.781	 
    9.50	    63.00	  15.130	   25.798	   50.269	   57.525	   73.383	  108.714	 
   10.00	    63.00	  15.297	   24.068	   47.359	   55.015	   68.601	  108.760	 
   10.50	    63.00	  15.515	   23.845	   47.083	   54.795	   66.099	  111.556	 
   11.00	    63.00	  15.407	   23.964	   47.266	   54.620	   64.623	  111.842	 
   11.50	    63.00	  15.036	   23.521	   47.171	   54.369	   63.332	  108.551	 
   12.00	    63.00	  14.536	   23.487	   46.970	   53.679	   63.106	  102.472	 
   12.50	    63.00	  15.142	   23.419	   46.844	   53.827	   62.843	   97.732	 
   13.00	    63.00	  15.304	   23.398	   47.377	   54.002	   64.162	   98.311	 
   13.50	    63.00	  14.739	   23.830	   48.298	   54.099	   65.803	  100.701	 
   14.00	    63.00	  14.596	   26.483	   50.722	   55.577	   68.580	  105.221	 
   14.50	    63.00	  16.114	   28.506	   54.572	   57.875	   70.992	  114.622	 
   15.00	    63.00	  17.390	   28.551	   58.725	   62.957	   73.825	  123.470	 
   15.50	    63.00	  18.263	   28.502	   61.144	   67.194	   75.439	  129.965	 
   16.00	    63.00	  18.468	   29.031	   62.619	   69.463	   78.889	  130.617	 
   16.50	    63.00	  19.409	   31.670	   64.489	   72.804	   82.701	  136.053	 
   17.00	    63.00	  20.444	   35.168	   68.571	   77.013	   88.725	  144.915	 
   17.50	    63.00	  23.177	   38.043	   72.454	   85.640	   96.155	  152.257	 
   18.00	    63.00	  24.759	   41.580	   77.696	   90.378	  102.538	  164.144	 
   18.50	    63.00	  24.552	   43.472	   83.829	   97.280	  113.253	  183.989	 
   19.00	    63.00	  28.851	   44.747	   89.757	  103.597	  116.026	  209.259	 
   19.50	    63.00	  28.183	   44.939	   97.886	  107.727	  124.843	  238.992	 
   20.00	    63.00	  29.324	   49.560	  103.487	  111.435	  127.303	  242.779	 
   20.50	    63.00	  32.318	   55.521	  107.734	  117.449	  148.083	  250.861	 
   21.00	    63.00	  40.818	   61.883	  111.704	  123.998	  175.988	  257.985	 
   21.50	    63.00	  43.377	   61.711	  119.884	  130.899	  204.785	  303.305	 
   22.00	    63.00	  49.399	   72.938	  136.986	  147.190	  207.843	  346.120	 
   22.50	    63.00	  51.341	   80.077	  148.342	  162.982	  199.025	  534.402	 
   23.00	    63.00	  42.931	   76.335	  147.212	  164.758	  186.258	  532.021	 
   23.50	    63.00	  44.566	   73.160	  149.071	  162.798	  184.575	  374.894	 
    0.00	    65.00	  41.510	   68.337	  131.292	  145.108	  183.354	  337.273	 
    0.50	    65.00	  43.132	   71.619	  129.059	  147.147	  192.876	  326.505	 
    1.00	    65.00	  42.807	   69.136	  127.085	  146.311	  192.299	  322.893	 
    1.50	    65.00	  42.193	   69.988	  124.845	  145.445	  189.828	  337.019	 
    2.00	    65.00	  43.426	   69.011	  121.912	  143.185	  185.376	  340.770	 
    2.50	    65.00	  40.277	   63.964	  120.220	  136.497	  180.268	  334.002	 
    3.00	    65.00	  37.638	   60.872	  116.519	  128.736	  170.924	  266.077	 
    3.50	    65.00	  35.575	   56.653	  108.081	  121.113	  158.043	  250.916	 
    4.00	    65.00	  33.085	   52.863	  101.141	  115.955	  145.366	  230.698	 
    4.50	    65.00	  31.685	   50.481	   95.240	  110.846	  133.998	  215.889	 
    5.00	    65.00	  28.198	   47.732	   90.083	  104.250	  128.478	  188.876	 
    5.50	    65.00	  26.525	   43.898	   83.552	   97.172	  120.473	  180.585	 
    6.00	    65.00	  25.420	   41.229	   79.527	   90.532	  112.673	  176.552	 
    6.50	    65.00	  23.090	   38.161	   76.712	   86.754	  106.905	  172.628	 
    7.00	    65.00	  21.444	   34.796	   71.016	   81.575	  101.775	  166.408	 
    7.50	    65.00	  21.661	   33.057	   66.421	   76.806	   95.639	  153.751	 
    8.00	    65.00	  19.898	   31.820	   62.071	   71.459	   87.701	  136.626	 
    8.50	    65.00	  19.001	   30.442	   59.265	   67.422	   83.902	  123.297	 
    9.00	    65.00	  17.325	   29.573	   56.579	   63.524	   80.233	  117.688	 
    9.50	    65.00	  15.669	   27.861	   52.749	   59.408	   75.430	  110.545	 
   10.00	    65.00	  15.940	   26.196	   49.850	   56.543	   72.364	  110.543	 
   10.50	    65.00	  16.068	   25.848	   49.415	   55.903	   69.993	  112.422	 
   11.00	    65.00	  16.084	   25.383	   48.605	   55.541	   68.016	  112.510	 
   11.50	    65.00	  15.299	   25.094	   48.681	   55.089	   67.330	  109.608	 
   12.00	    65.00	  14.702	   25.268	   48.612	   54.105	   66.749	  103.457	 
   12.50	    65.00	  15.244	   25.375	   48.811	   54.249	   66.984	   99.818	 
   13.00	    65.00	  15.741	   25.541	   49.254	   54.328	   67.454	   99.984	 
   13.50	    65.00	  15.345	   25.843	   50.676	   54.856	   68.512	  101.974	 
   14.00	    65.00	  15.211	   27.470	   52.672	   56.434	   70.423	  107.115	 
   14.50	    65.00	  16.522	   28.982	   55.152	   59.590	   72.109	  114.063	 
   15.00	    65.00	  18.024	   29.325	   59.060	   64.695	   74.232	  124.192	 
   15.50	    65.00	  19.212	   29.904	   61.201	   68.479	   76.820	  130.963	 
   16.00	    65.00	  19.780	   30.499	   63.163	   71.250	   78.760	  131.280	 
   16.50	    65.00	  19.988	   32.855	   65.820	   72.232	   84.810	  138.395	 
   17.00	    65.00	  21.311	   35.886	   68.766	   75.615	   89.784	  143.669	 
   17.50	    65.00	  22.369	   37.426	   71.635	   84.109	   94.610	  151.187	 
   18.00	    65.00	  24.241	   39.640	   73.849	   87.322	   99.193	  160.818	 
   18.50	    65.00	  25.345	   41.352	   78.217	   92.310	  107.504	  179.625	 
   19.00	    65.00	  28.670	   43.055	   84.752	   98.603	  112.260	  200.471	 
   19.50	    65.00	  28.738	   42.996	   91.566	  105.771	  124.670	  221.363	 
   20.00	    65.00	  28.986	   46.203	   99.406	  109.551	  129.533	  249.940	 
   20.50	    65.00	  33.617	   54.666	  103.918	  116.667	  148.967	  259.948	 
   21.00	    65.00	  38.324	   61.921	  110.917	  124.071	  171.381	  268.960	 
   21.50	    65.00	  42.803	   61.427	  118.174	  129.684	  202.850	  277.940	 
   22.00	    65.00	  43.240	   67.467	  128.809	  139.112	  207.797	  316.623	 
   22.50	    65.00	  42.238	   71.871	  134.052	  145.847	  190.173	  343.983	 
   23.00	    65.00	  41.182	   66.735	  123.675	  143.880	  176.859	  362.920	 
   23.50	    65.00	  42.901	   67.285	  124.563	  142.561	  175.206	  354.907	 
    0.00	    67.00	  40.822	   65.758	  125.864	  141.485	  184.476	  320.229	 
    0.50	    67.00	  39.826	   67.499	  125.006	  144.583	  191.450	  303.581	 
    1.00	    67.00	  41.234	   67.880	  124.860	  145.590	  192.941	  306.330	 
    1.50	    67.00	  43.166	   69.191	  123.490	  144.780	  189.455	  322.973	 
    2.00	    67.00	  43.209	   67.688	  121.473	  143.009	  182.211	  333.246	 
    2.50	    67.00	  39.885	   64.055	  119.589	  137.481	  176.887	  320.403	 
    3.00	    67.00	  38.454	   60.329	  115.456	  128.881	  166.759	  263.630	 
    3.50	    67.00	  35.862	   56.117	  105.881	  119.980	  154.528	  243.016	 
    4.00	    67.00	  30.998	   52.237	   98.469	  114.362	  143.349	  222.499	 
    4.50	    67.00	  30.253	   48.102	   93.766	  108.107	  132.246	  211.194	 
    5.00	    67.00	  29.114	   46.553	   88.712	  101.705	  125.940	  184.152	 
    5.50	    67.00	  26.148	   43.592	   81.864	   95.497	  119.499	  177.863	 
    6.00	    67.00	  24.350	   41.030	   78.688	   89.021	  112.168	  171.812	 
    6.50	    67.00	  23.362	   37.814	   74.773	   85.603	  106.289	  169.039	 
    7.00	    67.00	  22.076	   35.056	   69.782	   82.610	  101.048	  164.446	 
    7.50	    67.00	  21.371	   33.303	   65.739	   77.854	   96.923	  152.397	 
    8.00	    67.00	  20.174	   32.287	   62.645	   73.203	   89.507	  138.351	 
    8.50	    67.00	  19.710	   31.319	   60.087	   69.874	   86.034	  124.688	 
    9.00	    67.00	  18.508	   30.553	   58.410	   65.702	   82.435	  118.546	 
    9.50	    67.00	  16.351	   29.428	   55.769	   61.917	   78.778	  111.338	 
   10.00	    67.00	  16.755	   28.786	   53.030	   58.634	   75.703	  110.302	 
   10.50	    67.00	  15.954	   28.265	   52.439	   57.472	   74.149	  113.499	 
   11.00	    67.00	  15.380	   27.553	   51.531	   57.252	   72.551	  112.791	 
   11.50	    67.00	  15.133	   27.488	   51.562	   56.224	   70.818	  108.916	 
   12.00	    67.00	  15.020	   27.870	   51.888	   55.619	   70.294	  104.126	 
   12.50	    67.00	  15.722	   27.574	   52.103	   55.495	   70.820	  100.816	 
   13.00	    67.00	  15.816	   27.701	   52.796	   55.574	   71.955	  101.570	 
   13.50	    67.00	  15.886	   27.586	   53.507	   56.699	   72.839	  103.310	 
   14.00	    67.00	  16.030	   28.444	   54.777	   58.273	   73.235	  107.061	 
   14.50	    67.00	  16.368	   29.503	   56.836	   62.102	   73.736	  114.062	 
   15.00	    67.00	  17.633	   30.714	   59.334	   67.431	   75.582	  121.598	 
   15.50	    67.00	  18.898	   31.052	   61.193	   70.517	   77.560	  128.949	 
   16.00	    67.00	  19.518	   31.688	   62.611	   71.043	   80.758	  131.808	 
   16.50	    67.00	  19.836	   33.910	   66.183	   71.879	   85.554	  135.942	 
   17.00	    67.00	  19.675	   36.014	   68.519	   74.819	   89.987	  140.970	 
   17.50	    67.00	  20.722	   37.366	   71.129	   80.640	   94.023	  148.316	 
   18.00	    67.00	  22.936	   38.642	   72.957	   86.040	   99.818	  157.271	 
   18.50	    67.00	  26.561	   40.513	   76.030	   91.393	  104.950	  179.512	 
   19.00	    67.00	  29.035	   42.025	   82.171	   99.165	  111.109	  201.633	 
   19.50	    67.00	  28.560	   42.047	   89.163	  105.991	  123.234	  217.369	 
   20.00	    67.00	  28.736	   44.988	   96.805	  108.868	  131.797	  242.427	 
   20.50	    67.00	  34.268	   50.941	  103.550	  115.836	  148.796	  268.585	 
   21.00	    67.00	  38.954	   61.276	  113.968	  123.227	  176.380	  275.647	 
   21.50	    67.00	  46.142	   64.352	  117.399	  130.885	  203.610	  311.642	 
   22.00	    67.00	  45.227	   65.011	  125.828	  136.071	  204.035	  308.870	 
   22.50	    67.00	  38.931	   64.649	  123.793	  137.781	  188.835	  327.068	 
   23.00	    67.00	  40.263	   65.664	  117.366	  134.906	  175.938	  352.555	 
   23.50	    67.00	  43.121	   66.652	  123.353	  138.598	  174.473	  344.014	 
    0.00	    69.00	  37.320	   65.543	  123.140	  136.184	  182.773	  302.869	 
    0.50	    69.00	  39.360	   65.713	  120.875	  136.809	  187.455	  288.147	 
    1.00	    69.00	  41.256	   66.332	  119.356	  137.783	  189.117	  285.473	 
    1.50	    69.00	  42.947	   68.070	  119.739	  138.251	  182.514	  300.106	 
    2.00	    69.00	  41.560	   66.214	  118.168	  137.585	  177.604	  321.169	 
    2.50	    69.00	  38.381	   61.215	  114.678	  134.089	  168.878	  309.840	 
    3.00	    69.00	  36.483	   57.926	  109.106	  126.695	  160.108	  256.637	 
    3.50	    69.00	  33.491	   54.029	  103.315	  118.069	  148.936	  237.324	 
    4.00	    69.00	  30.098	   50.227	   94.684	  111.267	  137.785	  220.101	 
    4.50	    69.00	  28.543	   46.156	   90.752	  105.042	  130.021	  194.639	 
    5.00	    69.00	  27.930	   44.099	   84.784	   98.321	  123.752	  180.014	 
    5.50	    69.00	  25.739	   42.730	   79.812	   92.150	  117.707	  173.169	 
    6.00	    69.00	  24.536	   40.307	   77.079	   87.266	  110.119	  168.345	 
    6.50	    69.00	  23.544	   37.147	   72.365	   83.879	  103.840	  167.589	 
    7.00	    69.00	  21.900	   33.719	   67.466	   82.184	   99.830	  162.736	 
    7.50	    69.00	  21.040	   32.806	   65.058	   78.611	   96.169	  151.244	 
    8.00	    69.00	  19.480	   31.807	   61.785	   73.479	   90.429	  137.658	 
    8.50	    69.00	  19.389	   30.921	   59.140	   69.507	   86.570	  124.688	 
    9.00	    69.00	  18.230	   30.133	   57.885	   65.800	   82.541	  118.735	 
    9.50	    69.00	  16.272	   29.048	   55.477	   62.493	   80.327	  112.899	 
   10.00	    69.00	  16.722	   28.685	   53.936	   59.452	   77.863	  112.008	 
   10.50	    69.00	  16.067	   28.453	   52.984	   58.779	   76.534	  112.865	 
   11.00	    69.00	  15.704	   27.771	   52.588	   57.948	   74.585	  113.612	 
   11.50	    69.00	  15.222	   28.175	   52.878	   57.060	   73.650	  110.131	 
   12.00	    69.00	  15.340	   28.547	   53.969	   57.546	   72.813	  104.583	 
   12.50	    69.00	  15.969	   28.674	   54.569	   57.259	   74.213	  102.953	 
   13.00	    69.00	  15.975	   28.266	   54.699	   57.442	   74.689	  103.192	 
   13.50	    69.00	  16.002	   28.558	   55.711	   58.313	   74.746	  104.905	 
   14.00	    69.00	  16.524	   28.789	   55.848	   60.236	   74.800	  108.299	 
   14.50	    69.00	  16.834	   29.644	   56.791	   64.119	   74.486	  114.023	 
   15.00	    69.00	  18.184	   30.360	   58.706	   68.679	   75.785	  121.025	 
   15.50	    69.00	  19.352	   30.679	   60.184	   71.761	   77.378	  127.374	 
   16.00	    69.00	  19.510	   32.068	   62.221	   71.795	   80.129	  130.232	 
   16.50	    69.00	  20.365	   33.802	   64.540	   70.512	   83.803	  133.346	 
   17.00	    69.00	  20.290	   35.968	   67.119	   71.642	   87.272	  137.561	 
   17.50	    69.00	  21.658	   37.233	   70.827	   77.926	   91.670	  143.897	 
   18.00	    69.00	  23.948	   38.672	   73.143	   84.941	   98.340	  154.979	 
   18.50	    69.00	  26.994	   40.434	   76.152	   90.266	  103.829	  174.548	 
   19.00	    69.00	  28.061	   41.873	   81.323	   98.836	  108.722	  199.437	 
   19.50	    69.00	  27.619	   41.921	   84.001	  105.151	  121.601	  216.673	 
   20.00	    69.00	  29.031	   44.953	   91.808	  110.087	  129.729	  240.026	 
   20.50	    69.00	  34.442	   50.781	  102.034	  116.998	  148.447	  267.228	 
   21.00	    69.00	  40.707	   62.643	  117.531	  123.946	  180.751	  274.152	 
   21.50	    69.00	  39.635	   63.875	  122.105	  131.747	  202.253	  293.036	 
   22.00	    69.00	  41.094	   64.158	  121.867	  131.535	  201.706	  299.484	 
   22.50	    69.00	  38.485	   62.106	  117.068	  129.785	  187.682	  263.878	 
   23.00	    69.00	  39.586	   63.491	  115.710	  131.214	  176.475	  338.848	 
   23.50	    69.00	  39.740	   64.880	  120.871	  135.559	  175.438	  334.005	 
    0.00	    71.00	  35.643	   63.133	  119.841	  131.382	  180.617	  286.872	 
    0.50	    71.00	  37.192	   64.052	  115.991	  130.366	  181.735	  240.838	 
    1.00	    71.00	  37.396	   64.244	  113.121	  129.463	  183.549	  235.894	 
    1.50	    71.00	  38.583	   65.534	  113.083	  129.356	  176.996	  238.062	 
    2.00	    71.00	  37.671	   63.448	  109.372	  128.550	  169.372	  253.167	 
    2.50	    71.00	  35.670	   56.913	  108.034	  127.804	  162.980	  253.881	 
    3.00	    71.00	  32.877	   54.522	  104.263	  120.998	  153.147	  248.489	 
    3.50	    71.00	  30.312	   52.253	   98.105	  114.552	  143.743	  232.298	 
    4.00	    71.00	  29.426	   49.425	   91.921	  107.333	  135.612	  211.665	 
    4.50	    71.00	  27.976	   44.167	   85.244	  100.506	  125.907	  189.908	 
    5.00	    71.00	  26.303	   42.627	   81.989	   94.905	  121.382	  175.603	 
    5.50	    71.00	  24.450	   41.479	   78.892	   90.163	  116.036	  168.157	 
    6.00	    71.00	  23.745	   39.593	   75.283	   86.237	  109.112	  165.321	 
    6.50	    71.00	  22.091	   35.537	   69.305	   83.145	  102.414	  163.605	 
    7.00	    71.00	  20.903	   32.584	   64.887	   81.352	   99.256	  159.510	 
    7.50	    71.00	  20.778	   32.433	   63.414	   78.210	   96.485	  149.019	 
    8.00	    71.00	  18.585	   31.930	   60.615	   72.811	   91.201	  136.893	 
    8.50	    71.00	  17.726	   30.868	   58.218	   67.866	   86.936	  124.319	 
    9.00	    71.00	  17.010	   29.764	   56.376	   63.908	   83.694	  117.785	 
    9.50	    71.00	  15.566	   29.066	   54.468	   61.014	   80.539	  112.664	 
   10.00	    71.00	  15.731	   28.855	   53.048	   59.310	   78.417	  112.999	 
   10.50	    71.00	  15.759	   28.308	   52.365	   59.140	   76.892	  115.417	 
   11.00	    71.00	  15.626	   27.723	   52.198	   58.364	   75.360	  114.809	 
   11.50	    71.00	  14.929	   28.015	   53.302	   58.542	   74.086	  110.853	 
   12.00	    71.00	  14.705	   29.156	   54.415	   58.056	   73.555	  105.351	 
   12.50	    71.00	  14.969	   29.069	   55.202	   58.221	   74.299	  104.019	 
   13.00	    71.00	  15.014	   28.639	   55.923	   58.466	   75.043	  104.468	 
   13.50	    71.00	  15.381	   28.844	   56.429	   59.218	   75.795	  105.515	 
   14.00	    71.00	  16.238	   29.019	   56.804	   61.048	   75.378	  108.376	 
   14.50	    71.00	  16.627	   29.288	   57.194	   64.606	   74.817	  113.908	 
   15.00	    71.00	  17.878	   29.321	   57.829	   69.977	   76.079	  120.343	 
   15.50	    71.00	  19.030	   29.299	   58.943	   72.255	   77.040	  126.532	 
   16.00	    71.00	  19.085	   31.126	   60.306	   71.931	   79.167	  129.028	 
   16.50	    71.00	  19.824	   33.153	   61.356	   69.719	   81.672	  132.385	 
   17.00	    71.00	  19.464	   34.854	   62.796	   69.629	   85.564	  135.727	 
   17.50	    71.00	  19.885	   36.254	   67.687	   74.763	   89.376	  140.559	 
   18.00	    71.00	  20.970	   37.392	   72.071	   82.463	   96.568	  152.623	 
   18.50	    71.00	  24.210	   40.710	   77.097	   90.005	  102.511	  172.523	 
   19.00	    71.00	  26.215	   40.839	   80.031	   99.289	  109.660	  195.437	 
   19.50	    71.00	  26.949	   40.999	   82.491	  105.011	  118.547	  212.787	 
   20.00	    71.00	  29.149	   44.413	   90.662	  111.441	  126.963	  238.354	 
   20.50	    71.00	  33.418	   53.260	  101.390	  118.111	  149.078	  268.363	 
   21.00	    71.00	  38.978	   59.616	  109.130	  123.462	  181.854	  269.892	 
   21.50	    71.00	  40.958	   61.312	  116.846	  127.551	  204.333	  273.237	 
   22.00	    71.00	  38.314	   60.413	  117.519	  126.467	  194.510	  266.654	 
   22.50	    71.00	  36.116	   59.797	  114.969	  125.235	  182.301	  260.645	 
   23.00	    71.00	  36.872	   60.694	  110.115	  128.204	  171.658	  271.464	 
   23.50	    71.00	  36.805	   62.687	  116.368	  131.912	  170.948	  322.648	 
    0.00	    73.00	  35.920	   59.840	  113.115	  124.497	  171.019	  245.545	 
    0.50	    73.00	  38.448	   60.919	  111.725	  123.930	  172.664	  233.319	 
    1.00	    73.00	  36.003	   60.623	  106.528	  123.775	  174.228	  228.775	 
    1.50	    73.00	  37.980	   61.238	  105.602	  122.277	  170.912	  227.691	 
    2.00	    73.00	  37.909	   59.584	  103.056	  120.884	  165.005	  237.043	 
    2.50	    73.00	  35.433	   54.651	  100.418	  119.470	  153.956	  239.170	 
    3.00	    73.00	  30.878	   53.149	   98.253	  113.726	  146.480	  239.387	 
    3.50	    73.00	  28.535	   52.160	   93.909	  108.849	  140.378	  223.486	 
    4.00	    73.00	  29.214	   48.539	   88.703	  104.082	  132.832	  200.842	 
    4.50	    73.00	  28.905	   43.567	   83.221	   97.708	  124.233	  190.631	 
    5.00	    73.00	  26.264	   42.080	   80.547	   93.476	  118.491	  176.761	 
    5.50	    73.00	  23.687	   41.648	   78.135	   88.274	  114.625	  166.947	 
    6.00	    73.00	  22.653	   39.578	   72.463	   83.745	  108.627	  164.102	 
    6.50	    73.00	  21.601	   34.802	   65.765	   81.387	  102.605	  161.900	 
    7.00	    73.00	  20.687	   31.976	   63.368	   80.575	   98.910	  160.437	 
    7.50	    73.00	  20.951	   32.088	   62.942	   77.036	   96.091	  148.841	 
    8.00	    73.00	  19.389	   32.013	   60.463	   71.912	   91.936	  135.302	 
    8.50	    73.00	  17.970	   31.330	   57.769	   66.314	   88.414	  123.165	 
    9.00	    73.00	  16.998	   30.298	   55.481	   62.454	   84.152	  115.357	 
    9.50	    73.00	  15.604	   29.352	   53.477	   59.923	   80.783	  112.411	 
   10.00	    73.00	  15.560	   29.299	   53.009	   59.137	   78.882	  113.292	 
   10.50	    73.00	  15.922	   29.086	   52.445	   59.491	   78.274	  115.673	 
   11.00	    73.00	  15.696	   28.698	   52.505	   58.807	   76.223	  115.017	 
   11.50	    73.00	  14.905	   29.064	   53.453	   58.702	   74.774	  111.414	 
   12.00	    73.00	  14.632	   29.475	   54.308	   58.627	   73.979	  106.976	 
   12.50	    73.00	  14.623	   29.557	   55.247	   58.333	   75.037	  104.646	 
   13.00	    73.00	  15.013	   29.289	   56.106	   58.687	   75.849	  104.264	 
   13.50	    73.00	  15.784	   29.046	   57.104	   59.496	   77.110	  106.294	 
   14.00	    73.00	  16.019	   29.109	   57.044	   61.863	   76.397	  108.652	 
   14.50	    73.00	  16.854	   29.142	   57.163	   65.360	   75.488	  113.297	 
   15.00	    73.00	  18.027	   29.123	   57.572	   70.367	   76.587	  120.340	 
   15.50	    73.00	  18.680	   28.912	   58.246	   72.494	   77.724	  125.083	 
   16.00	    73.00	  19.018	   30.714	   59.493	   72.548	   79.377	  128.254	 
   16.50	    73.00	  19.228	   31.836	   58.460	   69.460	   79.648	  131.405	 
   17.00	    73.00	  19.422	   33.047	   58.602	   69.215	   81.542	  134.911	 
   17.50	    73.00	  19.149	   35.363	   64.371	   72.235	   86.685	  139.699	 
   18.00	    73.00	  19.556	   37.229	   70.668	   77.802	   95.719	  150.232	 
   18.50	    73.00	  23.747	   40.642	   76.422	   87.790	  104.751	  174.082	 
   19.00	    73.00	  27.705	   41.070	   80.137	   98.327	  111.706	  195.500	 
   19.50	    73.00	  28.039	   41.605	   80.976	  104.936	  117.598	  211.566	 
   20.00	    73.00	  29.158	   46.530	   88.056	  112.513	  124.967	  233.539	 
   20.50	    73.00	  32.266	   53.393	   99.902	  119.600	  148.465	  259.108	 
   21.00	    73.00	  37.882	   59.328	  110.181	  124.905	  181.309	  266.252	 
   21.50	    73.00	  36.827	   58.638	  112.840	  125.778	  199.743	  277.841	 
   22.00	    73.00	  36.265	   60.042	  116.481	  122.742	  190.388	  261.206	 
   22.50	    73.00	  35.868	   57.794	  110.441	  124.170	  174.454	  261.248	 
   23.00	    73.00	  36.241	   56.086	  106.313	  127.357	  166.336	  267.354	 
   23.50	    73.00	  35.888	   58.519	  110.748	  128.239	  165.343	  263.711	 
    0.00	    75.00	  34.776	   55.670	  107.372	  122.085	  165.157	  236.672	 
    0.50	    75.00	  37.974	   57.637	  106.223	  121.837	  170.008	  228.764	 
    1.00	    75.00	  35.440	   57.637	  102.415	  122.173	  169.220	  217.266	 
    1.50	    75.00	  36.017	   59.061	  101.752	  118.852	  165.382	  216.305	 
    2.00	    75.00	  35.702	   57.788	   99.217	  115.425	  160.038	  225.053	 
    2.50	    75.00	  33.022	   54.089	   96.789	  113.742	  150.348	  228.205	 
    3.00	    75.00	  29.458	   53.552	   94.414	  109.368	  144.045	  228.296	 
    3.50	    75.00	  28.945	   50.761	   91.402	  106.104	  138.606	  212.898	 
    4.00	    75.00	  29.906	   47.949	   86.280	  101.833	  130.576	  197.293	 
    4.50	    75.00	  30.466	   44.012	   84.433	   97.057	  122.503	  188.999	 
    5.00	    75.00	  26.852	   42.326	   81.612	   93.403	  118.398	  176.818	 
    5.50	    75.00	  25.104	   41.543	   76.468	   87.926	  114.932	  167.498	 
    6.00	    75.00	  22.385	   39.203	   71.339	   82.724	  110.149	  162.661	 
    6.50	    75.00	  22.270	   35.368	   65.709	   79.821	  104.114	  161.334	 
    7.00	    75.00	  21.361	   32.316	   62.534	   78.761	  100.734	  158.905	 
    7.50	    75.00	  20.795	   31.862	   62.560	   76.731	   96.562	  150.179	 
    8.00	    75.00	  19.744	   32.203	   61.384	   72.453	   94.230	  135.165	 
    8.50	    75.00	  18.468	   31.495	   58.728	   67.839	   89.167	  123.510	 
    9.00	    75.00	  17.212	   30.810	   56.597	   63.860	   84.811	  117.193	 
    9.50	    75.00	  15.792	   29.793	   54.809	   61.171	   83.070	  114.232	 
   10.00	    75.00	  15.657	   29.512	   54.582	   60.140	   80.209	  115.050	 
   10.50	    75.00	  16.291	   29.511	   54.394	   60.412	   79.866	  117.388	 
   11.00	    75.00	  15.981	   29.267	   54.320	   60.311	   77.403	  116.937	 
   11.50	    75.00	  15.315	   29.443	   55.086	   60.287	   76.183	  112.492	 
   12.00	    75.00	  15.042	   29.646	   56.009	   59.567	   75.802	  108.332	 
   12.50	    75.00	  14.776	   29.716	   56.612	   58.657	   76.321	  105.772	 
   13.00	    75.00	  15.166	   29.142	   57.135	   59.782	   77.329	  106.000	 
   13.50	    75.00	  15.786	   29.025	   57.339	   61.582	   77.540	  106.855	 
   14.00	    75.00	  16.153	   29.095	   57.162	   63.585	   77.008	  109.418	 
   14.50	    75.00	  16.632	   28.995	   56.846	   66.776	   76.786	  115.472	 
   15.00	    75.00	  17.260	   28.868	   58.274	   70.473	   77.040	  121.022	 
   15.50	    75.00	  18.547	   28.888	   58.726	   72.751	   78.798	  126.605	 
   16.00	    75.00	  19.275	   30.737	   59.310	   72.689	   80.280	  127.976	 
   16.50	    75.00	  19.574	   31.306	   58.055	   70.528	   79.179	  131.273	 
   17.00	    75.00	  19.485	   32.871	   57.374	   69.283	   80.551	  136.921	 
   17.50	    75.00	  19.440	   34.851	   62.328	   71.006	   84.324	  141.117	 
   18.00	    75.00	  20.310	   35.792	   69.369	   77.711	   95.796	  149.967	 
   18.50	    75.00	  24.207	   39.328	   75.654	   87.465	  104.324	  170.266	 
   19.00	    75.00	  28.277	   40.995	   78.144	   98.097	  113.577	  195.822	 
   19.50	    75.00	  28.122	   42.392	   80.104	  103.919	  116.555	  214.016	 
   20.00	    75.00	  30.061	   47.755	   85.927	  111.169	  124.236	  237.651	 
   20.50	    75.00	  33.318	   54.219	   96.692	  118.476	  152.780	  254.851	 
   21.00	    75.00	  34.868	   58.833	  104.352	  123.516	  188.517	  261.741	 
   21.50	    75.00	  34.779	   57.095	  107.467	  123.591	  203.832	  263.939	 
   22.00	    75.00	  38.965	   57.041	  112.529	  123.005	  188.765	  253.432	 
   22.50	    75.00	  38.541	   57.113	  109.399	  125.193	  168.639	  253.162	 
   23.00	    75.00	  35.851	   53.714	  102.458	  125.595	  161.617	  257.238	 
   23.50	    75.00	  34.740	   54.300	  106.238	  124.761	  161.140	  253.790	 
    0.00	    77.00	  35.395	   52.566	  102.277	  116.745	  160.536	  224.123	 
    0.50	    77.00	  34.612	   54.866	   99.617	  115.877	  163.603	  219.735	 
    1.00	    77.00	  34.472	   56.188	   97.309	  115.376	  160.145	  206.794	 
    1.50	    77.00	  35.317	   55.671	   96.490	  112.213	  158.732	  204.803	 
    2.00	    77.00	  33.357	   54.959	   94.512	  110.703	  151.784	  209.617	 
    2.50	    77.00	  32.697	   51.866	   91.907	  107.008	  143.408	  206.729	 
    3.00	    77.00	  29.432	   49.978	   88.413	  102.995	  138.358	  198.781	 
    3.50	    77.00	  30.367	   47.248	   86.275	  100.734	  134.286	  200.386	 
    4.00	    77.00	  31.044	   45.324	   84.465	   97.195	  126.585	  196.631	 
    4.50	    77.00	  28.711	   42.993	   82.588	   94.427	  122.175	  190.749	 
    5.00	    77.00	  26.519	   41.714	   80.425	   90.088	  117.363	  177.227	 
    5.50	    77.00	  25.731	   39.992	   73.692	   85.270	  114.042	  167.844	 
    6.00	    77.00	  22.313	   38.239	   70.043	   80.540	  109.900	  162.674	 
    6.50	    77.00	  22.316	   35.416	   65.076	   77.909	  104.131	  161.200	 
    7.00	    77.00	  21.316	   32.657	   62.664	   76.744	  101.924	  158.297	 
    7.50	    77.00	  20.861	   32.217	   62.374	   75.176	   98.560	  150.347	 
    8.00	    77.00	  21.127	   32.500	   61.432	   71.897	   95.000	  136.987	 
    8.50	    77.00	  19.431	   31.333	   59.340	   68.501	   90.908	  127.252	 
    9.00	    77.00	  18.450	   31.192	   57.487	   64.687	   86.566	  119.549	 
    9.50	    77.00	  16.677	   29.605	   55.479	   61.918	   84.123	  116.552	 
   10.00	    77.00	  16.359	   29.266	   54.992	   60.454	   81.032	  116.599	 
   10.50	    77.00	  16.838	   29.523	   55.013	   60.765	   81.109	  118.127	 
   11.00	    77.00	  16.305	   28.940	   54.597	   60.175	   78.826	  118.644	 
   11.50	    77.00	  15.651	   28.902	   54.861	   59.842	   77.558	  115.256	 
   12.00	    77.00	  15.856	   29.115	   55.426	   58.962	   76.714	  109.662	 
   12.50	    77.00	  15.865	   29.045	   56.201	   58.712	   77.029	  107.781	 
   13.00	    77.00	  16.238	   28.829	   56.431	   60.139	   77.763	  108.108	 
   13.50	    77.00	  16.473	   29.110	   57.215	   62.518	   78.487	  108.827	 
   14.00	    77.00	  16.597	   28.944	   56.884	   64.430	   78.168	  111.337	 
   14.50	    77.00	  17.153	   29.112	   56.923	   66.017	   77.631	  117.115	 
   15.00	    77.00	  17.739	   29.213	   57.836	   68.565	   78.680	  122.285	 
   15.50	    77.00	  18.517	   29.578	   58.545	   70.615	   80.606	  128.301	 
   16.00	    77.00	  18.875	   30.470	   58.720	   71.422	   82.166	  129.778	 
   16.50	    77.00	  18.956	   30.899	   57.723	   69.812	   81.867	  133.249	 
   17.00	    77.00	  19.099	   31.411	   57.171	   68.672	   81.570	  138.634	 
   17.50	    77.00	  18.818	   32.341	   60.744	   71.131	   84.205	  142.555	 
   18.00	    77.00	  20.422	   34.488	   65.591	   74.563	   93.345	  152.009	 
   18.50	    77.00	  23.953	   37.372	   69.522	   82.312	  103.734	  170.672	 
   19.00	    77.00	  26.204	   39.423	   73.903	   90.401	  110.576	  200.882	 
   19.50	    77.00	  26.545	   41.854	   76.922	   95.750	  116.818	  223.039	 
   20.00	    77.00	  30.099	   46.037	   81.750	  105.389	  125.518	  231.667	 
   20.50	    77.00	  33.384	   52.398	   91.745	  111.631	  150.927	  254.562	 
   21.00	    77.00	  36.048	   56.008	  101.231	  118.113	  185.069	  250.449	 
   21.50	    77.00	  37.898	   54.674	  105.122	  122.101	  200.797	  252.360	 
   22.00	    77.00	  37.597	   57.584	  107.987	  121.255	  186.795	  243.770	 
   22.50	    77.00	  35.425	   55.156	  105.158	  121.377	  165.645	  244.129	 
   23.00	    77.00	  35.434	   50.705	   98.024	  119.365	  156.733	  243.830	 
   23.50	    77.00	  36.532	   52.588	   99.405	  118.149	  156.864	  237.743	 
    0.00	    79.00	  34.125	   48.741	   95.304	  109.883	  149.488	  212.883	 
    0.50	    79.00	  32.840	   50.455	   93.205	  108.405	  152.228	  204.983	 
    1.00	    79.00	  34.285	   50.894	   88.504	  108.757	  154.180	  195.061	 
    1.50	    79.00	  34.569	   50.805	   89.973	  105.869	  152.376	  192.782	 
    2.00	    79.00	  34.010	   50.661	   88.405	  102.263	  143.217	  189.414	 
    2.50	    79.00	  31.782	   47.497	   85.879	   99.665	  136.351	  187.969	 
    3.00	    79.00	  30.911	   45.445	   84.005	   97.540	  131.345	  188.025	 
    3.50	    79.00	  31.676	   44.671	   82.696	   94.624	  129.244	  190.339	 
    4.00	    79.00	  28.299	   41.170	   79.644	   91.865	  122.370	  190.414	 
    4.50	    79.00	  26.919	   41.112	   80.137	   88.055	  119.591	  186.358	 
    5.00	    79.00	  26.125	   39.332	   76.295	   84.668	  116.770	  173.572	 
    5.50	    79.00	  24.952	   36.970	   69.990	   81.150	  111.748	  166.865	 
    6.00	    79.00	  22.273	   35.217	   67.492	   78.112	  107.723	  164.119	 
    6.50	    79.00	  23.855	   33.895	   64.179	   76.919	  103.166	  162.071	 
    7.00	    79.00	  22.769	   33.021	   62.167	   75.455	  101.393	  159.342	 
    7.50	    79.00	  21.508	   32.797	   62.122	   73.517	  100.595	  152.984	 
    8.00	    79.00	  22.004	   32.587	   61.415	   71.616	   96.425	  141.198	 
    8.50	    79.00	  20.352	   31.570	   59.891	   69.259	   92.491	  131.181	 
    9.00	    79.00	  20.494	   30.992	   58.531	   66.638	   88.010	  123.064	 
    9.50	    79.00	  19.070	   29.336	   56.713	   63.192	   85.160	  120.401	 
   10.00	    79.00	  18.282	   29.048	   55.624	   61.750	   82.806	  119.522	 
   10.50	    79.00	  18.622	   28.797	   55.289	   61.162	   81.624	  122.158	 
   11.00	    79.00	  18.843	   28.292	   54.800	   60.429	   80.495	  122.499	 
   11.50	    79.00	  17.976	   28.333	   55.274	   59.716	   78.447	  117.796	 
   12.00	    79.00	  18.072	   28.781	   55.597	   58.691	   77.591	  112.977	 
   12.50	    79.00	  17.911	   28.784	   56.148	   59.045	   78.390	  110.937	 
   13.00	    79.00	  18.404	   28.626	   56.571	   60.561	   78.787	  111.435	 
   13.50	    79.00	  18.697	   29.192	   57.129	   62.595	   78.911	  111.807	 
   14.00	    79.00	  18.752	   29.095	   56.898	   64.045	   78.738	  114.233	 
   14.50	    79.00	  18.685	   29.196	   56.766	   64.616	   78.474	  120.850	 
   15.00	    79.00	  18.890	   29.307	   57.826	   66.784	   80.027	  125.190	 
   15.50	    79.00	  19.136	   29.245	   58.225	   68.685	   82.782	  130.344	 
   16.00	    79.00	  19.871	   29.579	   58.783	   70.798	   83.755	  131.706	 
   16.50	    79.00	  19.944	   29.598	   57.439	   69.471	   83.091	  135.911	 
   17.00	    79.00	  19.612	   29.560	   56.114	   68.078	   82.620	  142.672	 
   17.50	    79.00	  19.571	   30.332	   58.000	   69.808	   83.826	  144.859	 
   18.00	    79.00	  21.229	   31.489	   61.465	   73.375	   92.150	  153.490	 
   18.50	    79.00	  25.238	   33.874	   65.935	   78.943	   98.751	  167.413	 
   19.00	    79.00	  27.669	   35.484	   69.104	   83.517	  107.697	  200.770	 
   19.50	    79.00	  27.830	   38.789	   73.037	   85.463	  112.780	  232.196	 
   20.00	    79.00	  30.160	   43.796	   78.760	   90.135	  123.527	  237.646	 
   20.50	    79.00	  30.863	   47.699	   87.436	  101.230	  152.848	  242.943	 
   21.00	    79.00	  39.530	   52.270	   96.379	  111.062	  183.278	  245.351	 
   21.50	    79.00	  39.232	   53.974	  101.825	  115.416	  200.368	  231.283	 
   22.00	    79.00	  40.824	   55.705	  104.745	  115.328	  179.618	  232.171	 
   22.50	    79.00	  32.002	   51.732	  100.651	  115.323	  161.268	  235.501	 
   23.00	    79.00	  32.149	   47.762	   91.946	  111.180	  149.413	  233.015	 
   23.50	    79.00	  35.020	   47.398	   91.865	  109.450	  150.057	  219.396	 
    0.00	    81.00	  35.823	   46.143	   87.779	  100.768	  143.807	  191.660	 
    0.50	    81.00	  35.150	   46.635	   84.699	   97.631	  145.634	  185.885	 
    1.00	    81.00	  35.393	   47.192	   80.905	   97.104	  147.300	  181.375	 
    1.50	    81.00	  33.573	   46.297	   80.069	   96.233	  142.870	  179.102	 
    2.00	    81.00	  33.737	   45.296	   79.827	   93.922	  136.621	  179.379	 
    2.50	    81.00	  33.382	   43.276	   78.704	   91.293	  132.949	  179.240	 
    3.00	    81.00	  32.341	   42.465	   77.834	   89.907	  126.427	  181.110	 
    3.50	    81.00	  31.178	   40.629	   77.233	   87.357	  124.425	  183.082	 
    4.00	    81.00	  31.944	   39.236	   75.349	   85.481	  120.245	  181.256	 
    4.50	    81.00	  29.410	   38.409	   74.032	   83.288	  118.243	  177.786	 
    5.00	    81.00	  28.239	   36.739	   72.084	   80.508	  116.269	  169.209	 
    5.50	    81.00	  26.179	   34.236	   66.612	   76.914	  111.168	  166.252	 
    6.00	    81.00	  25.083	   33.524	   65.066	   76.496	  105.334	  163.725	 
    6.50	    81.00	  26.576	   33.051	   63.730	   75.390	  100.521	  164.319	 
    7.00	    81.00	  26.015	   32.699	   61.999	   74.458	  100.126	  164.118	 
    7.50	    81.00	  24.630	   33.037	   62.436	   73.777	  100.947	  155.961	 
    8.00	    81.00	  24.551	   32.908	   61.637	   72.084	   98.179	  146.178	 
    8.50	    81.00	  23.442	   32.302	   60.234	   70.337	   94.695	  135.590	 
    9.00	    81.00	  23.200	   31.496	   59.172	   68.247	   90.501	  127.603	 
    9.50	    81.00	  22.149	   29.938	   57.495	   65.313	   87.475	  124.042	 
   10.00	    81.00	  21.657	   29.564	   56.230	   63.899	   83.772	  124.421	 
   10.50	    81.00	  22.230	   29.135	   55.401	   63.097	   83.234	  126.988	 
   11.00	    81.00	  22.611	   28.684	   54.909	   61.751	   82.001	  125.882	 
   11.50	    81.00	  21.791	   28.759	   55.689	   60.519	   80.207	  122.207	 
   12.00	    81.00	  21.420	   28.796	   56.120	   59.974	   79.156	  116.490	 
   12.50	    81.00	  21.286	   28.831	   56.633	   60.763	   79.967	  114.151	 
   13.00	    81.00	  21.404	   28.938	   56.873	   61.695	   79.791	  114.849	 
   13.50	    81.00	  21.925	   29.434	   57.221	   63.065	   80.288	  115.247	 
   14.00	    81.00	  21.733	   29.389	   57.234	   64.015	   79.819	  117.807	 
   14.50	    81.00	  21.342	   29.507	   57.256	   64.348	   79.908	  124.120	 
   15.00	    81.00	  21.735	   29.109	   58.037	   66.329	   82.270	  127.145	 
   15.50	    81.00	  22.073	   29.538	   58.750	   68.739	   84.465	  132.739	 
   16.00	    81.00	  22.508	   29.203	   59.424	   70.814	   85.447	  134.505	 
   16.50	    81.00	  21.741	   29.357	   57.530	   70.048	   84.253	  137.685	 
   17.00	    81.00	  22.081	   29.383	   56.042	   67.695	   82.838	  141.330	 
   17.50	    81.00	  21.147	   29.779	   56.298	   69.004	   83.547	  143.875	 
   18.00	    81.00	  23.339	   31.303	   58.402	   72.587	   90.716	  156.382	 
   18.50	    81.00	  26.458	   32.481	   63.131	   75.873	   97.766	  171.029	 
   19.00	    81.00	  30.000	   34.200	   66.668	   78.822	  106.734	  189.371	 
   19.50	    81.00	  31.115	   37.919	   69.701	   79.459	  114.381	  232.850	 
   20.00	    81.00	  33.910	   42.161	   75.083	   81.874	  125.193	  255.168	 
   20.50	    81.00	  35.557	   46.950	   82.957	   91.839	  144.633	  254.239	 
   21.00	    81.00	  40.116	   52.223	   90.753	  101.773	  171.491	  227.521	 
   21.50	    81.00	  41.818	   53.771	   98.335	  108.368	  195.825	  221.275	 
   22.00	    81.00	  45.214	   53.525	   99.429	  106.846	  173.633	  224.328	 
   22.50	    81.00	  34.299	   48.018	   92.301	  104.557	  157.201	  226.130	 
   23.00	    81.00	  33.440	   44.712	   83.990	  101.703	  145.984	  216.736	 
   23.50	    81.00	  36.039	   44.375	   85.749	  101.989	  141.434	  203.400	 
    0.00	    83.00	  35.712	   43.394	   84.037	   91.747	  140.060	  183.708	 
    0.50	    83.00	  35.629	   44.442	   80.988	   89.884	  139.060	  175.196	 
    1.00	    83.00	  34.884	   43.880	   75.310	   88.830	  141.112	  171.449	 
    1.50	    83.00	  36.595	   44.048	   73.926	   87.117	  139.009	  173.075	 
    2.00	    83.00	  35.909	   42.858	   72.126	   84.660	  133.025	  173.569	 
    2.50	    83.00	  35.805	   41.530	   72.880	   85.558	  132.064	  174.085	 
    3.00	    83.00	  34.117	   39.982	   73.613	   84.630	  127.074	  175.829	 
    3.50	    83.00	  30.875	   39.347	   73.690	   85.011	  124.446	  177.008	 
    4.00	    83.00	  32.835	   37.608	   72.177	   83.403	  120.489	  175.676	 
    4.50	    83.00	  34.378	   37.752	   71.666	   81.580	  118.573	  171.764	 
    5.00	    83.00	  32.022	   35.855	   68.516	   78.239	  116.308	  166.383	 
    5.50	    83.00	  29.534	   33.540	   65.277	   76.062	  112.569	  164.530	 
    6.00	    83.00	  27.382	   33.793	   64.491	   75.466	  106.436	  163.627	 
    6.50	    83.00	  25.320	   33.090	   63.843	   75.231	  100.347	  163.714	 
    7.00	    83.00	  26.633	   32.748	   62.968	   75.235	   99.957	  164.866	 
    7.50	    83.00	  28.917	   32.782	   62.723	   74.238	  100.133	  158.632	 
    8.00	    83.00	  28.127	   32.525	   62.502	   73.285	   98.553	  148.243	 
    8.50	    83.00	  26.721	   32.679	   60.987	   71.242	   96.435	  139.334	 
    9.00	    83.00	  26.119	   32.226	   59.819	   69.564	   92.260	  131.149	 
    9.50	    83.00	  25.366	   30.702	   58.803	   67.449	   88.936	  127.264	 
   10.00	    83.00	  25.121	   30.467	   57.580	   66.070	   85.910	  126.548	 
   10.50	    83.00	  24.772	   29.812	   56.734	   65.719	   85.468	  129.039	 
   11.00	    83.00	  24.113	   29.449	   55.623	   63.814	   83.849	  128.810	 
   11.50	    83.00	  23.856	   29.670	   56.492	   62.978	   83.075	  124.793	 
   12.00	    83.00	  23.412	   29.776	   57.584	   63.274	   82.118	  118.885	 
   12.50	    83.00	  23.251	   29.764	   57.818	   63.656	   82.104	  117.176	 
   13.00	    83.00	  23.019	   29.556	   57.781	   64.551	   82.398	  116.844	 
   13.50	    83.00	  23.692	   29.710	   57.676	   65.169	   82.317	  117.675	 
   14.00	    83.00	  23.823	   29.668	   57.444	   65.545	   82.226	  120.228	 
   14.50	    83.00	  23.431	   29.676	   57.619	   66.059	   82.253	  125.361	 
   15.00	    83.00	  24.821	   29.537	   58.307	   67.743	   83.325	  128.930	 
   15.50	    83.00	  24.700	   29.897	   59.072	   69.212	   85.085	  135.124	 
   16.00	    83.00	  25.391	   29.413	   59.987	   72.062	   86.231	  135.101	 
   16.50	    83.00	  24.224	   29.548	   58.336	   71.167	   86.202	  137.451	 
   17.00	    83.00	  24.051	   29.545	   56.025	   67.855	   84.376	  141.150	 
   17.50	    83.00	  24.439	   29.729	   55.666	   68.269	   85.352	  144.948	 
   18.00	    83.00	  26.136	   31.248	   57.746	   72.502	   92.309	  157.911	 
   18.50	    83.00	  29.493	   33.063	   63.019	   76.510	  102.295	  168.857	 
   19.00	    83.00	  33.431	   35.569	   67.150	   79.298	  109.024	  190.461	 
   19.50	    83.00	  33.379	   39.685	   68.367	   79.695	  116.439	  231.656	 
   20.00	    83.00	  43.358	   41.071	   72.082	   82.227	  123.215	  258.070	 
   20.50	    83.00	  43.652	   45.509	   78.889	   91.582	  148.783	  251.977	 
   21.00	    83.00	  46.921	   54.374	   85.207	   99.184	  171.009	  224.079	 
   21.50	    83.00	  43.365	   48.050	   90.694	  101.474	  185.245	  208.832	 
   22.00	    83.00	  43.974	   50.101	   89.475	   98.974	  174.070	  205.066	 
   22.50	    83.00	  38.918	   45.770	   84.332	   96.403	  159.694	  211.316	 
   23.00	    83.00	  35.874	   43.363	   79.581	   94.002	  146.100	  202.581	 
   23.50	    83.00	  36.347	   42.845	   80.175	   93.700	  141.765	  193.482	 
    0.00	    85.00	  38.415	   41.596	   81.102	   85.356	  140.350	  171.947	 
    0.50	    85.00	  37.506	   42.356	   78.738	   83.341	  140.218	  167.534	 
    1.00	    85.00	  36.560	   43.589	   73.352	   82.724	  138.605	  168.455	 
    1.50	    85.00	  37.474	   43.182	   69.215	   80.792	  137.493	  169.160	 
    2.00	    85.00	  37.852	   41.281	   69.211	   81.064	  135.609	  170.626	 
    2.50	    85.00	  34.376	   39.839	   69.261	   81.224	  131.695	  170.016	 
    3.00	    85.00	  33.506	   39.187	   70.382	   82.446	  127.508	  171.677	 
    3.50	    85.00	  31.954	   38.675	   71.513	   83.430	  124.450	  173.216	 
    4.00	    85.00	  29.440	   38.083	   70.315	   82.488	  120.651	  170.514	 
    4.50	    85.00	  31.588	   37.783	   68.894	   80.543	  119.868	  169.718	 
    5.00	    85.00	  29.760	   34.901	   67.307	   77.456	  117.822	  164.529	 
    5.50	    85.00	  28.920	   33.789	   64.925	   75.832	  112.728	  163.922	 
    6.00	    85.00	  29.433	   33.530	   64.832	   75.895	  108.590	  163.823	 
    6.50	    85.00	  28.326	   32.948	   64.305	   75.439	  102.381	  164.552	 
    7.00	    85.00	  26.530	   32.728	   62.998	   74.954	  101.052	  167.880	 
    7.50	    85.00	  28.463	   32.890	   62.974	   73.918	  100.519	  161.576	 
    8.00	    85.00	  28.247	   32.837	   62.984	   73.374	   99.427	  150.951	 
    8.50	    85.00	  26.548	   32.113	   61.221	   71.832	   96.999	  143.355	 
    9.00	    85.00	  25.858	   32.021	   60.398	   70.412	   93.261	  132.854	 
    9.50	    85.00	  25.657	   31.278	   58.880	   68.381	   90.489	  129.577	 
   10.00	    85.00	  25.951	   30.849	   57.744	   67.309	   87.251	  129.895	 
   10.50	    85.00	  24.614	   30.283	   57.100	   66.570	   86.074	  132.814	 
   11.00	    85.00	  23.711	   29.784	   56.013	   65.731	   85.139	  131.647	 
   11.50	    85.00	  23.833	   29.565	   56.640	   64.557	   83.820	  127.905	 
   12.00	    85.00	  23.560	   29.774	   57.541	   64.951	   83.247	  120.570	 
   12.50	    85.00	  23.552	   30.013	   57.789	   65.625	   83.958	  118.696	 
   13.00	    85.00	  24.068	   29.895	   58.243	   66.101	   83.485	  118.986	 
   13.50	    85.00	  24.457	   29.801	   58.035	   66.839	   83.598	  119.074	 
   14.00	    85.00	  24.997	   29.645	   57.470	   66.893	   82.736	  121.121	 
   14.50	    85.00	  25.175	   29.423	   57.442	   67.716	   83.227	  124.954	 
   15.00	    85.00	  26.540	   29.520	   58.369	   68.776	   83.410	  129.383	 
   15.50	    85.00	  27.854	   29.711	   58.973	   69.730	   84.771	  135.039	 
   16.00	    85.00	  28.839	   29.717	   59.948	   71.847	   87.006	  135.196	 
   16.50	    85.00	  29.322	   29.430	   58.008	   71.185	   86.846	  137.956	 
   17.00	    85.00	  26.572	   28.670	   56.685	   68.731	   85.692	  141.349	 
   17.50	    85.00	  26.289	   29.724	   55.679	   68.599	   85.821	  145.372	 
   18.00	    85.00	  27.406	   31.138	   57.769	   72.210	   93.035	  157.671	 
   18.50	    85.00	  35.753	   33.321	   63.313	   76.586	  103.950	  171.579	 
   19.00	    85.00	  37.330	   35.219	   67.976	   79.971	  109.139	  192.985	 
   19.50	    85.00	  41.167	   36.895	   67.073	   79.713	  116.467	  219.352	 
   20.00	    85.00	  44.032	   39.405	   70.452	   81.608	  123.399	  264.196	 
   20.50	    85.00	  44.284	   48.670	   79.265	   92.318	  155.460	  257.320	 
   21.00	    85.00	  46.752	   51.010	   82.276	   99.995	  170.306	  246.900	 
   21.50	    85.00	  44.607	   45.348	   84.162	   96.078	  191.916	  218.978	 
   22.00	    85.00	  47.515	   45.089	   83.567	   94.408	  175.825	  205.699	 
   22.50	    85.00	  40.166	   42.686	   80.372	   94.161	  162.608	  207.763	 
   23.00	    85.00	  38.737	   40.707	   77.387	   91.804	  150.293	  199.480	 
   23.50	    85.00	  39.162	   41.215	   80.060	   87.478	  144.146	  185.618	 
